Tiempo (s);Data1;Data2
0.7656354904174805;-38764.96484375;-8.193085670471191
0.7656731605529785;-38776.20703125;-10.111115455627441
0.7657155990600586;-38765.56640625;-13.856832504272461
0.7657339572906494;-38749.69921875;-16.676286697387695
0.765749454498291;-38765.87890625;-17.64177703857422
0.7657780647277832;-38780.51953125;-17.738910675048828
0.7657980918884277;-38768.25;-17.17048454284668
0.7658295631408691;-38751.41796875;-15.365818977355957
0.7658426761627197;-38759.77734375;-13.314735412597656
0.7658596038818359;-38778.26171875;-12.971733093261719
0.7658758163452148;-38765.9921875;-14.258304595947266
0.7658932209014893;-38753.4765625;-15.194671630859375
0.7659182548522949;-38748.4453125;-15.220355033874512
0.7659316062927246;-38772.02734375;-16.0466251373291
0.7659478187561035;-38773.390625;-18.501928329467773
0.7659602165222168;-38746.76953125;-20.68160629272461
0.765972375869751;-38745.65234375;-20.6957950592041
0.7659857273101807;-38773.99609375;-19.460891723632812
0.765998363494873;-38773.92578125;-18.978687286376953
0.7660114765167236;-38741.359375;-19.392934799194336
0.7660260200500488;-38730.51953125;-19.55998420715332
0.7660398483276367;-38757.1171875;-19.287118911743164
0.7660534381866455;-38757.296875;-18.997831344604492
0.7660667896270752;-38745.31640625;-17.7952880859375
0.7660806179046631;-38742.07421875;-14.371637344360352
0.7660939693450928;-38746.43359375;-10.104240417480469
0.7661066055297852;-38772.16015625;-8.444853782653809
0.7661197185516357;-38772.609375;-10.62812328338623
0.7661330699920654;-38739.015625;-14.504108428955078
0.7661452293395996;-38749.23046875;-17.58422088623047
0.7661569118499756;-38769.1875;-18.755077362060547
0.7661678791046143;-38748.6484375;-17.382173538208008
0.7661805152893066;-38741.11328125;-13.550666809082031
0.7661926746368408;-38754.90625;-9.46713924407959
0.7662043571472168;-38762.52734375;-8.249903678894043
0.7662160396575928;-38754.7265625;-10.537310600280762
0.7662270069122314;-38739.26171875;-13.579176902770996
0.7662379741668701;-38742.30078125;-14.239741325378418
0.7662491798400879;-38761.03125;-12.002685546875
0.7662692070007324;-38751.80078125;-8.498180389404297
0.7662804126739502;-38725.828125;-5.282259941101074
0.7662937641143799;-38737.5390625;-3.3056812286376953
0.7663054466247559;-38755.578125;-3.3878908157348633
0.7663168907165527;-38763.0859375;-5.37916374206543
0.7663280963897705;-38743.5078125;-7.521792888641357
0.7663393020629883;-38732.84375;-8.14439582824707
0.766350269317627;-38747.39453125;-7.329647541046143
0.7663609981536865;-38760.80859375;-5.973496437072754
0.7663729190826416;-38736.33203125;-4.327628135681152
0.7663841247558594;-38718.3828125;-2.3314528465270996
0.7663958072662354;-38737.5625;-0.37404000759124756
0.7664053440093994;-38761.34375;1.1066076755523682
0.7664217948913574;-38745.8984375;2.3048806190490723
0.7664315700531006;-38734.72265625;3.5574591159820557
0.7664401531219482;-38739.796875;4.349566459655762
0.7664716243743896;-38746.01171875;3.685790538787842
0.7664835453033447;-38737.96484375;1.5992414951324463
0.7664916515350342;-38724.375;-0.6122323274612427
0.7665050029754639;-38732.80078125;-2.0897347927093506
0.7665152549743652;-38747.23828125;-3.1925065517425537
0.766524076461792;-38739.83984375;-4.049455642700195
0.7665331363677979;-38716.1015625;-4.027542591094971
0.7665417194366455;-38725.625;-3.3638317584991455
0.766552209854126;-38745.16015625;-3.4709243774414062
0.7665610313415527;-38743.0390625;-4.565989017486572
0.7665739059448242;-38720.5078125;-4.7893595695495605
0.7665841579437256;-38725.35546875;-3.0950205326080322
0.7665936946868896;-38745.453125;-1.2176933288574219
0.766603946685791;-38760.76171875;-1.1398046016693115
0.7666182518005371;-38739.83984375;-2.3069939613342285
0.7666280269622803;-38730.56640625;-3.2159290313720703
0.7666459083557129;-38754.28125;-4.215868949890137
0.7666563987731934;-38760.984375;-6.306398391723633
0.7666656970977783;-38734.65625;-8.3851900100708
0.7666780948638916;-38719.90234375;-8.428828239440918
0.7666866779327393;-38740.734375;-6.6913981437683105
0.7666957378387451;-38750.32421875;-5.249467372894287
0.7667107582092285;-38735.52734375;-4.704004764556885
0.7667202949523926;-38726.921875;-3.6056675910949707
0.7667298316955566;-38743.59765625;-1.047981858253479
0.7667381763458252;-38760.046875;2.3497633934020996
0.766746997833252;-38749.7890625;6.026620864868164
0.7667562961578369;-38730.8984375;9.83094310760498
0.7667648792266846;-38738.61328125;12.465532302856445
0.7667741775512695;-38760.11328125;11.682151794433594
0.7667834758758545;-38760.3359375;7.043547630310059
0.7667930126190186;-38719.94921875;1.1393345594406128
0.7668030261993408;-38717.06640625;-3.016630172729492
0.7668123245239258;-38742.41015625;-4.688266277313232
0.7668225765228271;-38754.90625;-4.643625736236572
0.7668323516845703;-38734.0078125;-3.4622037410736084
0.7668423652648926;-38726.20703125;-2.14371657371521
0.766852617263794;-38741.00390625;-2.613192081451416
0.7668659687042236;-38746.390625;-5.462081432342529
0.7668747901916504;-38730.140625;-8.096333503723145
0.7668843269348145;-38716.75;-7.276655673980713
0.7668933868408203;-38730.51953125;-3.31630277633667
0.766904354095459;-38755.64453125;0.31470394134521484
0.7669155597686768;-38738.12109375;1.3418246507644653
0.7669246196746826;-38723.61328125;0.4289027154445648
0.7669339179992676;-38742.09765625;-0.7498970627784729
0.766944169998169;-38754.81640625;-0.9119077920913696
0.766953706741333;-38733.76171875;0.6352769732475281
0.766974925994873;-38704.2578125;3.3994908332824707
0.7669839859008789;-38725.37890625;5.603763103485107
0.766993522644043;-38760.0234375;5.718852519989014
0.7670025825500488;-38748.22265625;4.20428991317749
0.7670114040374756;-38727.94921875;3.031806707382202
0.7670204639434814;-38740.80078125;3.140629529953003
0.7670316696166992;-38758.97265625;3.330982208251953
0.7670407295227051;-38754.30078125;2.4448699951171875
0.76705002784729;-38726.85546875;1.2184122800827026
0.7670600414276123;-38726.98828125;0.4740932285785675
0.7670691013336182;-38756.3828125;-0.8180797100067139
0.7670783996582031;-38757.2734375;-3.5294408798217773
0.7670876979827881;-38734.2734375;-6.009396553039551
0.767096757888794;-38731.14453125;-5.895462512969971
0.7671065330505371;-38756.73828125;-3.260970115661621
0.7671167850494385;-38767.890625;-0.43213939666748047
0.7671265602111816;-38734.58984375;0.7379948496818542
0.7671353816986084;-38720.1953125;0.14682002365589142
0.7671446800231934;-38748.53515625;-1.6230350732803345
0.7671573162078857;-38750.27734375;-3.933657169342041
0.7671675682067871;-38733.8515625;-5.478856086730957
0.7671778202056885;-38713.17578125;-4.852808952331543
0.7671866416931152;-38738.76953125;-2.480595350265503
0.7671959400177002;-38766.171875;-0.6068287491798401
0.7672057151794434;-38743.86328125;-0.5713077187538147
1.2793824672698975;-38739.68359375;-1.4126518964767456
1.279453992843628;-38760.00390625;-1.841591715812683
1.2794747352600098;-38744.7578125;-1.6110246181488037
1.2795746326446533;-38717.69140625;-0.22406990826129913
1.2796003818511963;-38738.5234375;2.8689157962799072
1.2796239852905273;-38761.07421875;5.9059624671936035
1.2796657085418701;-38748.89453125;5.546859264373779
1.2796874046325684;-38723.32421875;1.0758683681488037
1.279707431793213;-38733.87109375;-4.0433478355407715
1.279726266860962;-38760.08984375;-5.92148494720459
1.2797555923461914;-38766.9765625;-4.1664299964904785
1.2797753810882568;-38738.859375;-0.7862445712089539
1.2797958850860596;-38725.08984375;2.9691004753112793
1.2798163890838623;-38754.81640625;6.5374579429626465
1.279836893081665;-38764.515625;8.514575958251953
1.2798573970794678;-38748.35546875;7.937442779541016
1.2798783779144287;-38735.03515625;6.367435455322266
1.279897928237915;-38750.0546875;6.230901718139648
1.2799184322357178;-38760.3828125;7.509274482727051
1.2799391746520996;-38748.6015625;8.4135160446167
1.279958963394165;-38715.03125;8.644384384155273
1.2799854278564453;-38728.171875;9.264384269714355
1.2800066471099854;-38771.08984375;9.98976993560791
1.280027151107788;-38756.29296875;9.472552299499512
1.2800471782684326;-38737.3828125;8.026130676269531
1.2800674438476562;-38744.3125;7.602757453918457
1.2800884246826172;-38759.0625;8.908191680908203
1.2801079750061035;-38744.3125;10.378432273864746
1.2801294326782227;-38722.1171875;10.38668441772461
1.2801508903503418;-38739.83984375;8.986823081970215
1.2801694869995117;-38761.87890625;6.960141181945801
1.2801876068115234;-38760.47265625;4.8029608726501465
1.2802050113677979;-38741.60546875;3.54263973236084
1.280221939086914;-38729.0;4.738607883453369
1.2802400588989258;-38739.19140625;8.249987602233887
1.280259132385254;-38747.171875;11.234014511108398
1.2802767753601074;-38737.31640625;10.87742805480957
1.2802948951721191;-38728.77734375;7.572177886962891
1.2803258895874023;-38747.70703125;4.200465679168701
1.280346155166626;-38753.9453125;2.9176690578460693
1.280364751815796;-38736.9140625;4.09655237197876
1.280381679534912;-38728.3984375;7.618567943572998
1.2803981304168701;-38744.17578125;12.781978607177734
1.2804145812988281;-38747.77734375;17.07457733154297
1.2804312705993652;-38729.58203125;17.613910675048828
1.280454158782959;-38732.59765625;14.348177909851074
1.2804701328277588;-38732.17578125;10.10803508758545
1.2804851531982422;-38738.07421875;7.428744792938232
1.2805004119873047;-38729.359375;7.048670291900635
1.280517816543579;-38721.15625;9.086033821105957
1.280536413192749;-38730.33984375;13.062640190124512
1.2805531024932861;-38739.05859375;16.581817626953125
1.2805688381195068;-38742.8125;16.583656311035156
1.2805843353271484;-38728.10546875;12.759928703308105
1.2806000709533691;-38727.14453125;7.983046054840088
1.2806155681610107;-38748.35546875;4.888512134552002
1.2806322574615479;-38744.421875;3.7706286907196045
1.2806487083435059;-38722.96484375;4.195841312408447
1.2806651592254639;-38731.94921875;6.603228569030762
1.2806811332702637;-38747.8203125;10.933035850524902
1.2806980609893799;-38756.29296875;15.066205978393555
1.280714750289917;-38719.56640625;16.651845932006836
1.2807319164276123;-38717.1328125;15.770316123962402
1.280747890472412;-38744.734375;14.047940254211426
1.2807643413543701;-38754.48046875;12.182835578918457
1.2807807922363281;-38734.609375;10.218289375305176
1.2807977199554443;-38718.203125;9.053140640258789
1.2808141708374023;-38743.52734375;9.383304595947266
1.280829906463623;-38767.71484375;10.094609260559082
1.2808454036712646;-38737.3828125;9.829168319702148
1.280869960784912;-38723.30078125;9.271085739135742
1.2808856964111328;-38732.8671875;10.025442123413086
1.2809021472930908;-38760.25;11.545783996582031
1.2809312343597412;-38744.35546875;10.97122573852539
1.2809498310089111;-38721.53515625;6.886910915374756
1.2809650897979736;-38724.375;1.7078630924224854
1.2809810638427734;-38738.41015625;-1.0961241722106934
1.2809984683990479;-38726.921875;-0.5689037442207336
1.281015396118164;-38707.0078125;2.3068900108337402
1.2810328006744385;-38718.02734375;6.5352911949157715
1.2810490131378174;-38741.6953125;10.43162727355957
1.2810664176940918;-38750.59375;11.128785133361816
1.2810821533203125;-38730.9453125;7.3895721435546875
1.2810990810394287;-38722.96484375;2.0085818767547607
1.281116008758545;-38740.6015625;-0.44618961215019226
1.2811307907104492;-38748.0;1.8066835403442383
1.2811481952667236;-38727.27734375;6.386279106140137
1.2811636924743652;-38725.53515625;9.811301231384277
1.2811894416809082;-38753.25390625;10.617513656616211
1.2812066078186035;-38760.6953125;9.298967361450195
1.2812228202819824;-38741.16015625;7.136025905609131
1.2812385559082031;-38710.91796875;5.734882354736328
1.2812550067901611;-38722.5859375;6.035218238830566
1.2812714576721191;-38756.73828125;7.253363132476807
1.2812879085540771;-38744.109375;7.990457057952881
1.2813045978546143;-38725.4921875;8.082636833190918
1.2813198566436768;-38737.046875;7.673830509185791
1.281336784362793;-38738.2109375;5.4916157722473145
1.2813529968261719;-38722.7421875;0.7926180362701416
1.2813701629638672;-38723.3671875;-3.781162738800049
1.281386137008667;-38732.80078125;-4.115291595458984
1.2813999652862549;-38740.46484375;0.4876161813735962
1.2814278602600098;-38739.57421875;6.020179748535156
1.281444787979126;-38719.30078125;7.84880256652832
1.2814607620239258;-38721.6015625;5.198044776916504
1.2814865112304688;-38737.40625;0.9409222602844238
1.2815015316009521;-38752.58203125;-1.9942169189453125
1.281517744064331;-38724.59765625;-2.572232484817505
1.2815351486206055;-38719.79296875;-1.2402799129486084
1.281552791595459;-38746.74609375;0.3757888078689575
1.2815706729888916;-38766.125;0.015591607429087162
1.281590461730957;-38730.36328125;-3.063711166381836
1.2816081047058105;-38724.59765625;-6.441915512084961
1.2816267013549805;-38728.59765625;-6.658758640289307
1.2816417217254639;-38745.453125;-3.2933671474456787
1.2816567420959473;-38743.88671875;0.6293126344680786
1.281672716140747;-38731.94921875;2.5689051151275635
1.2816896438598633;-38739.26171875;2.925405979156494
1.2817063331604004;-38750.92578125;3.0349509716033936
1.281724452972412;-38744.37890625;2.826876640319824
1.2817423343658447;-38724.1953125;1.6427215337753296
1.2817621231079102;-38729.87109375;-0.2544211745262146
1.2817797660827637;-38748.4453125;-2.079530954360962
1.2817976474761963;-38753.65625;-3.0399038791656494
1.2818152904510498;-38730.609375;-2.009237766265869
1.2818315029144287;-38726.9453125;1.3936270475387573
1.2818498611450195;-38752.42578125;5.048249244689941
1.2818670272827148;-38739.6640625;5.875669479370117
1.6634442806243896;-38705.59765625;3.767988443374634
1.6634955406188965;-38729.22265625;1.9165396690368652
1.6635212898254395;-38760.2265625;2.5681097507476807
1.6635432243347168;-38760.44921875;4.542177200317383
1.663562536239624;-38739.9765625;5.762855529785156
1.6635792255401611;-38715.38671875;6.085498332977295
1.6636052131652832;-38741.25;6.216055393218994
1.6636180877685547;-38750.61328125;5.677577495574951
1.6636312007904053;-38728.5546875;3.870918035507202
1.663646936416626;-38714.78515625;2.1255478858947754
1.6636598110198975;-38737.515625;2.6097357273101807
1.663672685623169;-38751.75390625;5.326860427856445
1.6636850833892822;-38733.046875;7.939178466796875
1.663703203201294;-38707.38671875;8.726743698120117
1.6637160778045654;-38727.6796875;8.027287483215332
1.663728952407837;-38751.015625;6.713561058044434
1.6637415885925293;-38731.52734375;5.236737251281738
1.6637544631958008;-38707.36328125;4.557329177856445
1.6637673377990723;-38728.5078125;5.9608354568481445
1.6637797355651855;-38747.953125;8.877340316772461
1.663792610168457;-38736.17578125;10.538061141967773
1.6638052463531494;-38711.8125;9.058243751525879
1.6638178825378418;-38718.71875;5.5801191329956055
1.6638307571411133;-38733.6484375;2.3681159019470215
1.6638436317443848;-38740.53515625;0.3922329843044281
1.6638562679290771;-38726.1171875;-0.04897758737206459
1.6638693809509277;-38724.91015625;1.5058046579360962
1.6638820171356201;-38744.53515625;4.292089462280273
1.6638948917388916;-38737.1796875;6.067188739776611
1.6639072895050049;-38714.5390625;5.512178421020508
1.6639199256896973;-38709.80078125;3.5525996685028076
1.6639325618743896;-38732.30859375;1.7642618417739868
1.663945198059082;-38749.69921875;0.8171366453170776
1.6639578342437744;-38737.60546875;1.119827389717102
1.6639702320098877;-38720.57421875;3.291301965713501
1.6639831066131592;-38725.42578125;6.503862380981445
1.6639957427978516;-38736.48828125;7.726062297821045
1.6640081405639648;-38721.17578125;4.599459171295166
1.6640238761901855;-38698.33203125;-1.5286511182785034
1.664036512374878;-38718.71875;-7.065489768981934
1.6641170978546143;-38740.8671875;-9.958552360534668
1.6641302108764648;-38735.99609375;-10.47025203704834
1.6641428470611572;-38713.80078125;-9.19201946258545
1.6641554832458496;-38718.91796875;-6.327123641967773
1.664168119430542;-38734.41015625;-2.7823596000671387
1.6641809940338135;-38718.62890625;-0.2902906537055969
1.664236068725586;-38697.7734375;0.200180321931839
1.6642489433288574;-38714.3359375;-0.7488678693771362
1.6642615795135498;-38740.625;-2.474456310272217
1.6642742156982422;-38738.90234375;-4.973841667175293
1.6642866134643555;-38713.93359375;-7.551849842071533
1.664299488067627;-38715.87890625;-8.41002368927002
1.6643121242523193;-38736.421875;-6.746367931365967
1.6643271446228027;-38731.16796875;-4.208915710449219
1.6643397808074951;-38714.78515625;-3.0195538997650146
1.6643524169921875;-38695.71875;-3.2584900856018066
1.6643648147583008;-38718.0703125;-3.5996313095092773
1.6643776893615723;-38734.54296875;-3.8690433502197266
1.6643900871276855;-38714.13671875;-4.635027885437012
1.664402723312378;-38704.03515625;-5.220107078552246
1.6644151210784912;-38720.52734375;-4.571924686431885
1.6644277572631836;-38733.71484375;-3.6626858711242676
1.664440393447876;-38715.296875;-4.708122730255127
1.6644527912139893;-38697.171875;-7.855595588684082
1.6644654273986816;-38727.703125;-10.716449737548828
1.6644783020019531;-38731.66015625;-11.354923248291016
1.6644904613494873;-38715.8125;-9.852706909179688
1.6645030975341797;-38699.2734375;-6.8786540031433105
1.664515495300293;-38703.4296875;-2.9108572006225586
1.6645281314849854;-38735.6171875;0.4827103018760681
1.6645450592041016;-38748.4453125;1.1335704326629639
1.6645572185516357;-38720.9765625;-0.9492701888084412
1.664569616317749;-38704.0546875;-3.668290138244629
1.6645851135253906;-38726.65234375;-5.836249351501465
1.664597749710083;-38726.51953125;-7.800269603729248
1.6646101474761963;-38706.24609375;-9.65091323852539
1.6646223068237305;-38695.875;-11.185924530029297
1.6646349430084229;-38736.0625;-13.413651466369629
1.6646473407745361;-38743.70703125;-17.869335174560547
1.6646621227264404;-38725.3359375;-23.967016220092773
1.6646795272827148;-38703.765625;-28.77832794189453
1.6646974086761475;-38699.05078125;-30.328643798828125
1.6647429466247559;-38719.76953125;-29.715675354003906
1.6648454666137695;-38726.00390625;-29.014263153076172
1.6648659706115723;-38713.48828125;-28.473445892333984
1.6648850440979004;-38710.5390625;-27.035747528076172
1.664902925491333;-38727.14453125;-24.509870529174805
1.6649208068847656;-38710.3359375;-21.394229888916016
1.664940357208252;-38704.30078125;-17.109304428100586
1.66495943069458;-38712.16796875;-10.784976959228516
1.664978265762329;-38725.69140625;-3.8881187438964844
1.6649961471557617;-38715.2109375;0.4614946246147156
1.665008783340454;-38690.7109375;1.3772307634353638
1.665224552154541;-38734.9921875;1.1772964000701904
1.6652379035949707;-38746.5234375;2.011589765548706
1.6652488708496094;-38726.7890625;3.74838924407959
2.1698555946350098;-38695.67578125;5.653456211090088
2.1699063777923584;-38719.45703125;7.954044342041016
2.169921398162842;-38734.2734375;10.795088768005371
2.1699345111846924;-38732.7109375;13.068771362304688
2.169947385787964;-38704.30078125;13.52900505065918
2.169982433319092;-38719.1640625;12.440228462219238
2.1700196266174316;-38722.78515625;11.012411117553711
2.1700286865234375;-38712.078125;9.969246864318848
2.170037031173706;-38713.7578125;9.744723320007324
2.170057773590088;-38730.02734375;10.746358871459961
2.1700799465179443;-38744.265625;12.120779037475586
2.1701135635375977;-38727.19140625;11.721880912780762
2.1701319217681885;-38698.15625;8.585883140563965
2.1701462268829346;-38705.15234375;4.398614883422852
2.170156955718994;-38729.40234375;1.728822946548462
2.17016863822937;-38733.44921875;1.451700210571289
2.170179843902588;-38705.46484375;2.539491653442383
2.1701910495758057;-38704.48046875;3.97780179977417
2.170201063156128;-38720.23828125;5.628353118896484
2.170215606689453;-38731.37109375;7.257256984710693
2.1702334880828857;-38714.3828125;8.404661178588867
2.1702487468719482;-38718.515625;9.312090873718262
2.1702632904052734;-38728.2421875;10.356314659118652
2.170271396636963;-38714.0703125;10.65813159942627
2.1702799797058105;-38691.515625;9.008218765258789
2.170288324356079;-38709.75390625;6.241878032684326
2.1702966690063477;-38735.9296875;4.876906394958496
2.170304775238037;-38730.7890625;5.949049949645996
2.1703128814697266;-38694.30859375;7.7134690284729
2.170321226119995;-38694.30859375;8.131896018981934
2.1703293323516846;-38718.80859375;7.323809623718262
2.170337438583374;-38725.4453125;6.512539863586426
2.1703460216522217;-38705.5078125;5.945916652679443
2.170354127883911;-38694.265625;5.302394390106201
2.1703624725341797;-38718.11328125;4.846951961517334
2.170370578765869;-38728.59765625;4.826801300048828
2.1703786849975586;-38711.6328125;4.64174747467041
2.1704013347625732;-38692.56640625;3.755411148071289
2.1704139709472656;-38693.52734375;2.796414613723755
2.1704256534576416;-38721.19921875;2.612600564956665
2.1704351902008057;-38712.99609375;3.098388910293579
2.1704533100128174;-38699.2265625;4.317415237426758
2.1704652309417725;-38702.984375;7.301636695861816
2.17047381401062;-38716.83984375;11.781777381896973
2.1704821586608887;-38710.8515625;14.45097827911377
2.1704907417297363;-38686.28515625;11.773112297058105
2.170499086380005;-38687.62890625;4.437646389007568
2.1705071926116943;-38715.4765625;-2.7248799800872803
2.170515775680542;-38721.82421875;-5.745730400085449
2.170529365539551;-38704.546875;-4.709340572357178
2.1705377101898193;-38694.890625;-1.6592724323272705
2.170546293258667;-38715.3671875;1.967151403427124
2.1705546379089355;-38718.60546875;4.774155139923096
2.170562982559204;-38686.6875;4.992837429046631
2.1705715656280518;-38693.41796875;2.462475299835205
2.1705799102783203;-38717.46875;-0.6022370457649231
2.170588493347168;-38711.90234375;-2.2747035026550293
2.1705965995788574;-38704.8828125;-3.027791738510132
2.170604944229126;-38694.9375;-3.8610198497772217
2.1706132888793945;-38713.265625;-3.868443012237549
2.170621633529663;-38708.48046875;-1.7650747299194336
2.1706299781799316;-38687.984375;1.3503988981246948
2.170638084411621;-38682.73046875;3.132450819015503
2.1706464290618896;-38710.94140625;3.1312801837921143
2.1706550121307373;-38731.68359375;2.7935101985931396
2.170663356781006;-38716.640625;2.9036388397216797
2.1706717014312744;-38697.59765625;2.972905158996582
2.170680046081543;-38711.34375;3.1641502380371094
2.170703172683716;-38724.6875;4.7058916091918945
2.1707260608673096;-38710.62890625;7.657464027404785
2.1707489490509033;-38700.03125;10.176105499267578
2.1707587242126465;-38698.17578125;10.724867820739746
2.170766830444336;-38713.48828125;9.508145332336426
2.1707754135131836;-38713.7578125;7.577630519866943
2.170783519744873;-38702.37890625;5.8014140129089355
2.1707940101623535;-38701.3515625;4.938633441925049
2.170806646347046;-38725.671875;5.620616912841797
2.1708173751831055;-38720.9765625;7.2710418701171875
2.1708312034606934;-38698.9375;7.970891952514648
2.1708426475524902;-38697.9765625;6.646843433380127
2.1708548069000244;-38706.22265625;4.425795078277588
2.1708695888519287;-38726.67578125;2.74564528465271
2.1708824634552;-38711.58984375;1.3521655797958374
2.1708950996398926;-38686.64453125;-0.2111014723777771
2.1709067821502686;-38715.0078125;-0.47622281312942505
2.170919418334961;-38723.14453125;2.070189952850342
2.170931816101074;-38707.453125;5.984914302825928
2.1709578037261963;-38690.46484375;8.03698444366455
2.1709718704223633;-38704.7265625;6.799579620361328
2.1709847450256348;-38733.58203125;3.616604804992676
2.1709978580474854;-38726.69921875;0.485248327255249
2.1710093021392822;-38699.40625;-1.433793544769287
2.1710212230682373;-38708.4609375;-1.2921265363693237
2.1710331439971924;-38714.76171875;1.3666404485702515
2.1710455417633057;-38713.734375;5.08069372177124
2.1710567474365234;-38690.66796875;6.633631229400635
2.171109199523926;-38691.31640625;4.207675933837891
2.171124219894409;-38734.25390625;-0.46598687767982483
2.171135663986206;-38711.609375;-4.065592288970947
2.1711461544036865;-38693.83984375;-4.710620880126953
2.171156883239746;-38709.80078125;-2.3766226768493652
2.1711740493774414;-38726.9453125;1.9861111640930176
2.1711854934692383;-38716.83984375;6.203727722167969
2.1711959838867188;-38705.6640625;7.129255294799805
2.1712093353271484;-38723.3671875;3.4581236839294434
2.1712253093719482;-38748.625;-2.2857561111450195
2.1712417602539062;-38747.375;-6.360321044921875
2.1712534427642822;-38726.8984375;-7.314815998077393
2.1712632179260254;-38718.60546875;-5.621833801269531
2.171273946762085;-38747.21875;-1.945354700088501
2.1712844371795654;-38750.5234375;2.4745633602142334
2.171295166015625;-38739.70703125;5.271572113037109
2.1713054180145264;-38722.6953125;4.524226665496826
2.1713156700134277;-38730.8984375;0.7037922143936157
2.171328067779541;-38744.6015625;-3.7635316848754883
2.1713380813598633;-38721.78125;-6.883514404296875
2.1713483333587646;-38696.8125;-8.213641166687012
2.171358823776245;-38703.31640625;-7.633178234100342
2.1713695526123047;-38736.8671875;-4.7935404777526855
2.171381950378418;-38724.57421875;-0.7762099504470825
2.171405076980591;-38698.734375;1.5484836101531982
2.171417713165283;-38694.7109375;0.45276206731796265
2.1714274883270264;-38719.65625;-2.703516960144043
2.1714375019073486;-38710.671875;-5.871617794036865
2.171447515487671;-38696.234375;-9.010438919067383
2.171456813812256;-38689.88671875;-12.636526107788086
2.1714682579040527;-38700.5703125;-15.398846626281738
2.171478748321533;-38713.0859375;-15.286410331726074
2.686459541320801;-38691.78515625;-12.251409530639648
2.6865057945251465;-38705.484375;-7.988515377044678
2.6865227222442627;-38706.42578125;-3.8723714351654053
2.6865389347076416;-38685.2578125;-0.4671238362789154
2.686555862426758;-38689.640625;1.434720754623413
2.686580181121826;-38715.0546875;0.846027672290802
2.6865971088409424;-38719.5;-2.076716423034668
2.6866135597229004;-38702.625;-5.888253688812256
2.6866295337677;-38700.48046875;-9.256324768066406
2.6866447925567627;-38696.43359375;-11.380711555480957
2.686659812927246;-38713.95703125;-11.319131851196289
2.686673402786255;-38707.65625;-8.868982315063477
2.6866872310638428;-38691.0234375;-6.155569553375244
2.686702251434326;-38697.44140625;-6.1201372146606445
2.6867170333862305;-38707.8984375;-9.017861366271973
2.686732053756714;-38695.80859375;-12.124897003173828
2.686746120452881;-38683.0;-13.026564598083496
2.686760663986206;-38698.78125;-11.713035583496094
2.6867759227752686;-38716.21484375;-9.382781982421875
2.686790704727173;-38709.3515625;-6.876473903656006
2.686805486679077;-38681.234375;-5.087906837463379
2.6868648529052734;-38687.0;-5.276808261871338
2.686880350112915;-38701.6875;-7.512588977813721
2.686890125274658;-38713.265625;-9.92632007598877
2.6868999004364014;-38696.9921875;-10.780586242675781
2.6869099140167236;-38681.45703125;-10.33837890625
2.6869184970855713;-38706.37890625;-9.603601455688477
2.6869280338287354;-38704.81640625;-8.349928855895996
2.6869399547576904;-38693.86328125;-5.9675374031066895
2.6869499683380127;-38691.91796875;-3.549384117126465
2.6869595050811768;-38700.5234375;-3.164501905441284
2.686969757080078;-38711.58984375;-5.053828239440918
2.6869797706604004;-38695.71875;-7.346632957458496
2.6869897842407227;-38687.62890625;-8.580559730529785
2.686998128890991;-38702.42578125;-8.639019966125488
2.6870052814483643;-38707.2734375;-7.349404335021973
2.6870198249816895;-38672.18359375;-4.508799076080322
2.687044858932495;-38666.4140625;-1.4332282543182373
2.687053680419922;-38695.3828125;-0.25000855326652527
2.6870641708374023;-38719.41015625;-1.2974542379379272
2.6870765686035156;-38723.32421875;-2.764669895172119
2.687091827392578;-38685.63671875;-3.200852632522583
2.6871023178100586;-38683.76171875;-2.954972743988037
2.6871135234832764;-38706.42578125;-2.768270492553711
2.687126636505127;-38707.7890625;-2.8690316677093506
2.6871354579925537;-38681.83984375;-4.043255805969238
2.6871440410614014;-38685.75;-7.285097599029541
2.6871538162231445;-38709.84375;-11.503499031066895
2.6871633529663086;-38713.6015625;-13.696255683898926
2.6871724128723145;-38689.34765625;-12.329229354858398
2.687180519104004;-38686.59765625;-8.888643264770508
2.6871895790100098;-38706.15625;-5.525694847106934
2.687199115753174;-38720.8203125;-2.92100191116333
2.687209367752075;-38693.484375;-1.2366138696670532
2.687220573425293;-38673.14453125;-1.4763679504394531
2.6872308254241943;-38694.78125;-4.29754638671875
2.687246561050415;-38712.7734375;-7.916512489318848
2.6872594356536865;-38696.0078125;-8.999567985534668
2.687269449234009;-38681.94921875;-6.347113609313965
2.6872854232788086;-38687.11328125;-2.243777275085449
2.6872966289520264;-38703.36328125;0.48580315709114075
2.6873061656951904;-38699.71875;1.0679641962051392
2.687316417694092;-38670.171875;-0.2551144063472748
2.6873326301574707;-38673.5234375;-3.5743165016174316
2.6873440742492676;-38695.5390625;-7.880581855773926
2.687354564666748;-38692.03125;-10.242506980895996
2.6873652935028076;-38680.296875;-8.592141151428223
2.6873767375946045;-38688.56640625;-4.1905364990234375
2.6873855590820312;-38685.97265625;-0.05542546883225441
2.687403917312622;-38691.2265625;1.9389580488204956
2.6874139308929443;-38677.09765625;1.5898685455322266
2.6874234676361084;-38668.984375;-0.6378533840179443
2.6874356269836426;-38699.16015625;-3.758038282394409
2.687445878982544;-38695.49609375;-6.081750869750977
2.687455654144287;-38683.69140625;-6.365073204040527
2.6874687671661377;-38674.1484375;-5.1443657875061035
2.6874823570251465;-38691.96484375;-3.8218917846679688
2.687492609024048;-38712.5703125;-2.5229721069335938
2.6875035762786865;-38677.09765625;-0.3232417106628418
2.687514543533325;-38656.42578125;2.355699062347412
2.6875288486480713;-38682.46484375;3.5997331142425537
2.687544345855713;-38693.37109375;2.627654790878296
2.687560558319092;-38695.62890625;0.45398247241973877
2.687570333480835;-38679.0;-2.1777923107147217
2.6875815391540527;-38682.1953125;-5.156959533691406
2.6875908374786377;-38694.33203125;-7.2520751953125
2.68760085105896;-38684.765625;-6.70111083984375
2.6876132488250732;-38666.03515625;-4.055971622467041
2.687624216079712;-38667.890625;-1.9979450702667236
2.6876344680786133;-38692.56640625;-1.7983933687210083
2.6876440048217773;-38706.87109375;-1.9159355163574219
2.6876578330993652;-38684.1640625;-0.6514260768890381
2.687668561935425;-38676.5859375;1.4841958284378052
2.687678575515747;-38683.828125;3.157864570617676
2.687687873840332;-38683.1328125;4.302831649780273
2.6876986026763916;-38668.828125;5.030240535736084
2.687708854675293;-38663.28515625;4.039485931396484
2.6877195835113525;-38691.359375;0.3828098177909851
2.6877317428588867;-38709.2421875;-4.241703987121582
2.687742233276367;-38684.41015625;-7.158966064453125
2.6877524852752686;-38666.88671875;-7.83426570892334
2.687771797180176;-38691.25;-7.436960220336914
2.6877808570861816;-38690.12890625;-6.5547051429748535
2.687790632247925;-38666.97265625;-5.347223281860352
2.687805652618408;-38666.125;-4.843225002288818
2.6878178119659424;-38680.40625;-5.963903427124023
2.687828779220581;-38691.671875;-7.707487106323242
2.6878387928009033;-38691.046875;-8.205923080444336
2.687845468521118;-38677.703125;-7.244692802429199
2.687851667404175;-38681.234375;-5.872889518737793
2.6878581047058105;-38690.48828125;-4.11344051361084
2.6878647804260254;-38691.8515625;-1.1649514436721802
2.687871217727661;-38662.1015625;2.46075177192688
2.6878838539123535;-38665.609375;5.0012431144714355
2.6878905296325684;-38689.125;5.719968318939209
2.6878974437713623;-38701.015625;5.488609790802002
2.687904119491577;-38676.5625;4.838260650634766
2.687910556793213;-38669.1640625;3.0323867797851562
2.6879172325134277;-38698.2890625;-0.1364019811153412
2.6879236698150635;-38712.48046875;-3.026211738586426
2.6879305839538574;-38688.65625;-3.9465529918670654
2.687937021255493;-38672.47265625;-3.1308810710906982
2.687943696975708;-38683.58203125;-1.459088683128357
2.687950611114502;-38688.38671875;1.0620434284210205
2.687960386276245;-38678.77734375;3.5997889041900635
2.687980890274048;-38668.046875;3.4802846908569336
2.6879937648773193;-38674.08203125;-0.44391053915023804
2.6880059242248535;-38689.7265625;-5.05275821685791
3.1961684226989746;-38679.1328125;-6.158539295196533
3.1961963176727295;-38686.890625;-3.3793914318084717
3.1962084770202637;-38696.0078125;0.2585143744945526
3.196218252182007;-38684.20703125;2.6700022220611572
3.196227550506592;-38661.98828125;4.121798038482666
3.196275234222412;-38683.40234375;4.56015157699585
3.1962850093841553;-38706.4921875;2.736631393432617
3.1962943077087402;-38701.55078125;-1.258317232131958
3.1963043212890625;-38674.8203125;-5.066802024841309
3.1963140964508057;-38681.390625;-6.404861927032471
3.1963233947753906;-38685.1015625;-4.7687482833862305
3.1963324546813965;-38694.1328125;-0.7159848213195801
3.1963417530059814;-38674.26171875;4.533316135406494
3.196352243423462;-38675.55859375;8.426642417907715
3.196361780166626;-38696.41015625;8.455098152160645
3.1963706016540527;-38699.0703125;5.31479024887085
3.196380138397217;-38681.83984375;2.7836318016052246
3.1964480876922607;-38673.58984375;3.2846622467041016
3.1964609622955322;-38691.11328125;5.3209967613220215
3.1964728832244873;-38698.421875;6.327839374542236
3.1964828968048096;-38679.89453125;5.958115577697754
3.1964921951293945;-38666.953125;5.112842559814453
3.196502208709717;-38675.7578125;3.6642000675201416
3.1965112686157227;-38702.78125;1.2005305290222168
3.1965205669403076;-38691.80859375;-1.0744208097457886
3.1965301036834717;-38674.8203125;-1.2930817604064941
3.196540355682373;-38680.00390625;0.47370901703834534
3.1965503692626953;-38695.046875;2.1918551921844482
3.1965601444244385;-38685.7265625;2.619248628616333
3.19657039642334;-38657.65234375;2.5529847145080566
3.196580648422241;-38680.5625;2.9080376625061035
3.1965906620025635;-38691.0703125;3.414142608642578
3.196601152420044;-38690.0859375;3.7021892070770264
3.1966161727905273;-38670.796875;3.6196796894073486
3.1966288089752197;-38668.44921875;2.2979371547698975
3.1966397762298584;-38688.23046875;-1.0443601608276367
3.196657180786133;-38687.984375;-5.132078170776367
3.1966683864593506;-38667.95703125;-7.02932071685791
3.1966803073883057;-38683.515625;-5.238300323486328
3.196690320968628;-38707.0078125;-1.348073124885559
3.1967051029205322;-38702.87109375;2.3260951042175293
3.196714401245117;-38670.19140625;5.354637145996094
3.196725368499756;-38674.5078125;8.10848331451416
3.19673490524292;-38688.09765625;9.603653907775879
3.196744203567505;-38694.06640625;8.456521987915039
3.19675350189209;-38670.05859375;5.349081516265869
3.196762800216675;-38672.3828125;2.6729660034179688
3.196772336959839;-38686.80078125;1.8495395183563232
3.196782112121582;-38701.640625;2.5897068977355957
3.196791648864746;-38696.43359375;4.566026210784912
3.19680118560791;-38664.046875;7.746286869049072
3.196810483932495;-38663.66796875;10.90958309173584
3.1968204975128174;-38687.203125;12.009899139404297
3.1968305110931396;-38689.88671875;10.510790824890137
3.1968395709991455;-38674.8203125;7.861017227172852
3.196850538253784;-38671.265625;5.50815486907959
3.1968610286712646;-38699.0703125;3.6188433170318604
3.196871280670166;-38707.05078125;2.0167689323425293
3.1968817710876465;-38671.35546875;1.1225591897964478
3.1968934535980225;-38663.890625;0.8989492058753967
3.196903944015503;-38679.40234375;0.07598087936639786
3.1969146728515625;-38686.93359375;-1.9792548418045044
3.196925401687622;-38679.4453125;-3.7314841747283936
3.196934938430786;-38674.1484375;-3.334970474243164
3.19769549369812;-38687.60546875;-0.8579543828964233
3.1977338790893555;-38691.0234375;2.496946334838867
3.1978578567504883;-38683.046875;5.8569560050964355
3.197869062423706;-38671.51171875;8.30982494354248
3.1978869438171387;-38680.80859375;8.582980155944824
3.197896718978882;-38693.9296875;6.427265167236328
3.197908401489258;-38681.4140625;3.8461062908172607
3.1979222297668457;-38662.125;3.708150863647461
3.19793701171875;-38663.12890625;6.838131427764893
3.197951555252075;-38696.27734375;11.353711128234863
3.1979634761810303;-38683.91796875;14.888497352600098
3.197977066040039;-38669.09765625;16.239803314208984
3.197988510131836;-38680.7421875;14.963594436645508
3.1979997158050537;-38701.796875;11.357068061828613
3.198012113571167;-38689.88671875;7.371416091918945
3.1980226039886475;-38659.26171875;5.584847450256348
3.198035717010498;-38672.29296875;6.531338214874268
3.1980481147766113;-38700.94921875;8.607698440551758
3.1980621814727783;-38688.609375;10.676899909973145
3.198076009750366;-38674.52734375;12.725724220275879
3.1980884075164795;-38657.80859375;13.939180374145508
3.1980998516082764;-38680.49609375;12.621304512023926
3.1981120109558105;-38689.01171875;8.872444152832031
3.19812273979187;-38666.1484375;5.363659381866455
3.1981334686279297;-38659.62109375;4.329453945159912
3.1981444358825684;-38686.3984375;5.435421943664551
3.1981546878814697;-38703.96484375;7.510794162750244
3.198164939880371;-38685.03515625;10.320590019226074
3.1981759071350098;-38665.25390625;13.40042781829834
3.1981866359710693;-38686.6875;15.040816307067871
3.198197603225708;-38700.12109375;14.018067359924316
3.1982085704803467;-38678.62109375;11.355184555053711
3.198495388031006;-38674.86328125;9.076810836791992
3.198521375656128;-38686.890625;7.774274826049805
3.19853138923645;-38704.546875;6.5114264488220215
3.198542356491089;-38689.50390625;4.7770094871521
3.198559522628784;-38668.47265625;3.2498648166656494
3.1985743045806885;-38686.17578125;2.3807003498077393
3.198585271835327;-38698.2890625;1.5607305765151978
3.198599100112915;-38682.53125;0.3807816803455353
3.1986098289489746;-38661.7421875;-0.7495259642601013
3.198620557785034;-38671.2421875;-1.869747281074524
3.1986303329467773;-38687.08984375;-3.6312143802642822
3.1986420154571533;-38681.50390625;-5.693424224853516
3.198652505874634;-38666.86328125;-6.6895318031311035
3.1986637115478516;-38668.5390625;-6.187069892883301
3.198673963546753;-38691.5390625;-5.066558361053467
3.198683738708496;-38695.5859375;-3.465257406234741
3.1986937522888184;-38681.078125;-0.020474741235375404
3.1987037658691406;-38665.72265625;5.788963317871094
3.1987130641937256;-38686.77734375;11.841924667358398
3.1987228393554688;-38694.5546875;15.168787956237793
3.198732376098633;-38661.41015625;14.650923728942871
3.198741912841797;-38661.65625;10.859184265136719
3.198751449584961;-38696.63671875;4.575649261474609
3.198761463165283;-38716.83984375;-2.5940167903900146
3.198772430419922;-38678.59765625;-7.403970718383789
3.1987826824188232;-38657.18359375;-7.57185697555542
3.1987950801849365;-38674.0390625;-4.798386096954346
3.198805570602417;-38693.3046875;-2.829880952835083
3.19881534576416;-38691.3828125;-3.1762781143188477
3.1988251209259033;-38656.55859375;-4.839703559875488
3.1988353729248047;-38670.99609375;-7.038233757019043
3.198845148086548;-38704.03515625;-9.739173889160156
3.575087547302246;-38694.84765625;-12.107161521911621
3.5751302242279053;-38681.50390625;-12.757229804992676
3.575143575668335;-38674.26171875;-11.897626876831055
3.5751538276672363;-38687.47265625;-11.328088760375977
3.5751712322235107;-38676.94140625;-11.628621101379395
3.575180768966675;-38657.98828125;-11.131304740905762
3.5751900672912598;-38672.046875;-8.523099899291992
3.575200319290161;-38698.71484375;-4.8207807540893555
3.5752112865448;-38692.56640625;-1.7301644086837769
3.5752201080322266;-38661.140625;0.48047828674316406
3.5752291679382324;-38651.84375;2.2459089756011963
3.5752384662628174;-38686.77734375;3.21052885055542
3.575247287750244;-38691.08984375;2.935950994491577
3.57525634765625;-38673.3671875;2.1460635662078857
3.5752651691436768;-38663.1953125;1.7357155084609985
3.5752742290496826;-38683.87109375;1.0724375247955322
3.5752832889556885;-38699.609375;-0.9734461903572083
3.575291872024536;-38679.40234375;-3.6112008094787598
3.575300931930542;-38666.81640625;-4.856227397918701
3.5753097534179688;-38670.23828125;-4.464059829711914
3.5753188133239746;-38690.5546875;-3.9778096675872803
3.5753273963928223;-38690.375;-4.131363391876221
3.575336456298828;-38668.2265625;-4.297347545623779
3.575345754623413;-38667.2890625;-4.358028411865234
3.57535457611084;-38687.9609375;-5.015769958496094
3.5753684043884277;-38681.32421875;-6.062238693237305
3.5753774642944336;-38663.30859375;-6.3163652420043945
3.5753860473632812;-38690.421875;-5.572009086608887
3.575395345687866;-38698.17578125;-5.115333557128906
3.575404405593872;-38697.8203125;-6.136185169219971
3.5754129886627197;-38673.94921875;-8.436832427978516
3.5754218101501465;-38664.8515625;-11.143604278564453
3.5754306316375732;-38684.87890625;-14.279472351074219
3.575439691543579;-38692.43359375;-18.258241653442383
3.5754482746124268;-38666.953125;-22.144712448120117
3.5754573345184326;-38657.87890625;-24.609638214111328
3.575469732284546;-38675.04296875;-26.19343376159668
3.5754787921905518;-38694.19921875;-28.293441772460938
3.5754873752593994;-38684.296875;-30.48235321044922
3.5754992961883545;-38665.96875;-31.01302146911621
3.5755081176757812;-38672.83203125;-29.529827117919922
3.575516939163208;-38684.87890625;-27.355316162109375
3.575525999069214;-38677.16796875;-25.412260055541992
3.5755348205566406;-38653.13671875;-23.646366119384766
3.5755436420440674;-38664.62890625;-22.171161651611328
3.575552463531494;-38686.75390625;-21.081695556640625
3.5755615234375;-38677.390625;-19.38581657409668
3.5755701065063477;-38669.34375;-16.136266708374023
3.5755789279937744;-38669.6796875;-12.216007232666016
3.575587749481201;-38681.97265625;-8.885409355163574
3.575596809387207;-38686.59765625;-5.271562099456787
3.5756053924560547;-38674.7734375;0.41530221700668335
3.5756142139434814;-38665.7890625;7.406409740447998
3.5756235122680664;-38694.19921875;12.405393600463867
3.575632095336914;-38698.71484375;13.75853157043457
3.57564115524292;-38677.6796875;13.312531471252441
3.5756497383117676;-38664.76171875;13.1098051071167
3.5756587982177734;-38680.20703125;12.784130096435547
3.5756676197052;-38683.9609375;11.539468765258789
3.575676441192627;-38660.06640625;10.257076263427734
3.5756852626800537;-38671.22265625;9.963891983032227
3.5756940841674805;-38677.58984375;10.142926216125488
3.5757031440734863;-38690.890625;10.161822319030762
3.575711965560913;-38677.2109375;10.731640815734863
3.575721025466919;-38657.140625;12.45676326751709
3.5757298469543457;-38656.26953125;14.275020599365234
3.5757389068603516;-38669.9921875;14.758782386779785
3.575747489929199;-38669.41015625;14.101436614990234
3.5757625102996826;-38657.98828125;13.680648803710938
3.5757710933685303;-38666.81640625;14.185128211975098
3.575780153274536;-38684.7890625;15.142189025878906
3.575788736343384;-38676.1171875;16.018102645874023
3.5757977962493896;-38652.19921875;16.57501220703125
3.5758066177368164;-38660.0;16.135866165161133
3.5758156776428223;-38679.26953125;14.056476593017578
3.575824499130249;-38667.890625;11.21008586883545
3.575833320617676;-38646.41015625;9.522760391235352
3.5758421421051025;-38657.96484375;9.708446502685547
3.5758509635925293;-38682.8203125;10.694395065307617
3.575859785079956;-38684.8125;11.52863597869873
3.575868606567383;-38657.83203125;12.555168151855469
3.5758776664733887;-38652.265625;14.104842185974121
3.5758862495422363;-38673.96875;15.229386329650879
3.575895309448242;-38673.859375;14.92369556427002
3.57590389251709;-38647.83984375;13.762336730957031
3.5759127140045166;-38647.55078125;12.816984176635742
3.5759217739105225;-38666.08203125;11.773876190185547
3.575930595397949;-38674.75390625;9.937403678894043
3.575939655303955;-38662.90625;8.341642379760742
3.575948476791382;-38649.65234375;8.782861709594727
3.5759575366973877;-38663.17578125;11.016571044921875
3.5759663581848145;-38673.03125;12.954264640808105
3.575975179672241;-38674.953125;13.531003952026367
3.575984239578247;-38661.2734375;13.229604721069336
3.575993061065674;-38659.26171875;12.074169158935547
3.5760018825531006;-38678.55078125;9.495448112487793
4.091475248336792;-38661.07421875;6.099624156951904
4.0915207862854;-38669.27734375;3.618675947189331
4.091540575027466;-38689.88671875;3.05741810798645
4.091555595397949;-38680.83203125;4.156838893890381
4.091590642929077;-38664.3828125;6.454349994659424
4.091612815856934;-38669.03125;9.576210975646973
4.09165620803833;-38683.046875;12.361078262329102
4.091688871383667;-38680.36328125;13.15456485748291
4.091710567474365;-38649.44921875;11.920231819152832
4.0917298793792725;-38641.2265625;10.717514038085938
4.091747045516968;-38655.171875;10.936220169067383
4.091761112213135;-38669.140625;11.594568252563477
4.091774940490723;-38660.3359375;11.42625904083252
4.0917885303497314;-38655.44140625;10.884170532226562
4.091802597045898;-38679.671875;10.784433364868164
4.091816425323486;-38693.171875;10.393674850463867
4.091830253601074;-38667.890625;8.57192325592041
4.091844081878662;-38645.0234375;6.00539493560791
4.09185791015625;-38668.76171875;4.541236877441406
4.091871500015259;-38696.8828125;4.907629013061523
4.091885328292847;-38674.9296875;6.551745414733887
4.0918989181518555;-38662.3046875;8.824687004089355
4.091912746429443;-38678.75390625;10.758161544799805
4.091926574707031;-38692.74609375;10.570268630981445
4.09194016456604;-38685.48046875;7.41000509262085
4.091955661773682;-38666.97265625;3.3123397827148438
4.091969728469849;-38671.95703125;1.4995745420455933
4.092471122741699;-38698.15625;2.815300226211548
4.092488050460815;-38692.38671875;5.527580738067627
4.092507362365723;-38666.88671875;8.144865989685059
4.092522144317627;-38660.29296875;10.236434936523438
4.092536687850952;-38676.13671875;10.828909873962402
4.092550754547119;-38683.78125;8.55489730834961
4.092564582824707;-38663.0859375;3.9453699588775635
4.092578887939453;-38657.23046875;-0.19538582861423492
4.092592716217041;-38671.80078125;-1.5590187311172485
4.092606782913208;-38679.04296875;-0.442752480506897
4.092651128768921;-38666.1015625;1.5618395805358887
4.092665433883667;-38657.2734375;3.576632499694824
4.092679738998413;-38669.9921875;4.946634292602539
4.092694044113159;-38694.5546875;4.417452335357666
4.092707872390747;-38678.10546875;1.7671546936035156
4.092721939086914;-38654.390625;-0.8758000731468201
4.092736005783081;-38671.37890625;-1.2698205709457397
4.092749834060669;-38688.5;0.14906367659568787
4.092763900756836;-38680.5625;1.4097750186920166
4.092777729034424;-38662.9296875;2.151614189147949
4.092791795730591;-38671.98046875;3.52592134475708
4.092805624008179;-38690.2421875;5.31434440612793
4.092819690704346;-38683.73828125;5.571759223937988
4.092833757400513;-38661.07421875;3.61848521232605
4.092847585678101;-38675.0;1.2062366008758545
4.0928614139556885;-38683.29296875;-0.17361022531986237
4.092875242233276;-38686.375;-1.0815314054489136
4.092889070510864;-38688.87890625;-2.370908737182617
4.092902898788452;-38676.83203125;-3.5803942680358887
4.092916965484619;-38690.64453125;-3.9795680046081543
4.092931032180786;-38716.21484375;-3.875331163406372
4.092944860458374;-38698.9375;-3.8475899696350098
4.092958688735962;-38683.0;-3.618133068084717
4.092972755432129;-38708.7265625;-3.023160696029663
4.092986583709717;-38727.5703125;-3.1444218158721924
4.093000650405884;-38711.609375;-4.916238784790039
4.093014478683472;-38693.7734375;-7.6325273513793945
4.09302830696106;-38703.05078125;-10.176039695739746
4.0930421352386475;-38718.91796875;-12.630538940429688
4.093055963516235;-38710.359375;-15.289020538330078
4.093070030212402;-38695.49609375;-16.915525436401367
4.093084096908569;-38708.05859375;-15.73521900177002
4.093097925186157;-38715.25390625;-11.91299819946289
4.093111991882324;-38703.71875;-7.642114639282227
4.093125820159912;-38676.20703125;-5.032824516296387
4.0931396484375;-38703.80859375;-4.93710994720459
4.093153715133667;-38710.3828125;-7.363393783569336
4.09317684173584;-38684.8125;-11.476516723632812
4.093191623687744;-38661.65625;-14.915767669677734
4.09320592880249;-38661.1640625;-15.025004386901855
4.093219757080078;-38695.11328125;-11.6153564453125
4.093233585357666;-38696.03125;-6.979094505310059
4.093247413635254;-38658.4375;-3.095026969909668
4.093261241912842;-38660.8515625;-0.5321989059448242
4.093275308609009;-38685.99609375;0.24163930118083954
4.093289136886597;-38694.98046875;-1.445249319076538
4.093302965164185;-38668.2265625;-4.913377285003662
4.0933167934417725;-38664.15625;-7.679248809814453
4.09333062171936;-38686.10546875;-7.729024887084961
4.093344688415527;-38688.43359375;-5.702420711517334
4.093358755111694;-38666.484375;-3.9443907737731934
4.093372583389282;-38659.3984375;-3.8767106533050537
4.09346866607666;-38676.71875;-5.340057373046875
4.093483209609985;-38685.01171875;-7.929819107055664
4.093497276306152;-38672.875;-10.990861892700195
4.09351110458374;-38663.80078125;-12.590282440185547
4.093524932861328;-38666.59375;-10.944066047668457
4.093536376953125;-38673.1640625;-6.834353446960449
4.093547105789185;-38673.5;-2.802809238433838
4.093558073043823;-38658.14453125;-0.6125247478485107
4.093568801879883;-38671.890625;-0.9329488277435303
4.093579530715942;-38686.0390625;-4.182796478271484
4.093590497970581;-38678.84375;-9.743896484375
4.093601226806641;-38661.20703125;-14.814123153686523
4.0936119556427;-38665.85546875;-15.763548851013184
4.093622446060181;-38678.84375;-11.366480827331543
4.09363317489624;-38678.93359375;-4.104217052459717
4.093644380569458;-38661.1640625;2.2115886211395264
4.093655109405518;-38657.80859375;5.404915809631348
4.093665838241577;-38669.12109375;5.235438346862793
4.093676567077637;-38682.91015625;2.432666540145874
4.093687295913696;-38666.19140625;-1.187552809715271
4.093697786331177;-38654.03125;-3.010529041290283
4.093708753585815;-38675.421875;-1.7778804302215576
4.0937180519104;-38688.1640625;1.1112245321273804
4.0937275886535645;-38671.265625;3.2502152919769287
4.09373664855957;-38651.05859375;3.3414714336395264
4.093745946884155;-38657.85546875;1.3236793279647827
4.09375524520874;-38683.9609375;-2.2900047302246094
4.093764066696167;-38670.4375;-6.23386812210083
4.093773603439331;-38651.484375;-8.389496803283691
4.093782424926758;-38669.45703125;-7.135873794555664
4.093791961669922;-38685.99609375;-3.0618233680725098
4.093801259994507;-38678.8203125;1.4424933195114136
4.093810319900513;-38663.578125;4.475575923919678
4.093819618225098;-38670.28125;5.5462164878845215
4.093828916549683;-38675.4453125;4.472743988037109
4.0938379764556885;-38666.88671875;1.2134432792663574
4.093847274780273;-38657.4296875;-2.895531177520752
4.0938568115234375;-38656.26953125;-5.451940059661865
4.093865871429443;-38677.32421875;-5.438107490539551
4.605629205703735;-38651.55078125;-4.32612943649292
4.605661630630493;-38646.6796875;-3.8530166149139404
4.605672121047974;-38675.06640625;-3.864168643951416
4.605682373046875;-38673.92578125;-3.623389482498169
4.605695486068726;-38658.81640625;-3.912564754486084
4.605713129043579;-38648.66796875;-5.840188980102539
4.605722904205322;-38667.421875;-8.414216995239258
4.60573673248291;-38684.07421875;-9.619152069091797
4.605746030807495;-38669.140625;-9.271471977233887
4.605757236480713;-38651.73046875;-8.331884384155273
4.60576868057251;-38665.9453125;-6.576940536499023
4.60577917098999;-38667.19921875;-3.8292834758758545
4.6057915687561035;-38657.7421875;-2.179652214050293
4.605807781219482;-38648.30859375;-4.104747295379639
4.6058189868927;-38671.578125;-8.981729507446289
4.605828762054443;-38685.63671875;-13.665437698364258
4.605839967727661;-38671.4453125;-16.03312873840332
4.605850458145142;-38644.109375;-15.962217330932617
4.605859756469727;-38657.31640625;-13.59939956665039
4.6058690547943115;-38672.62890625;-9.002074241638184
4.605880260467529;-38663.1953125;-3.4923603534698486
4.605888605117798;-38641.8515625;0.3780905306339264
4.605897903442383;-38658.92578125;1.1010987758636475
4.605909824371338;-38679.84765625;-0.5471584796905518
4.605919122695923;-38678.57421875;-3.295367956161499
4.605928659439087;-38659.890625;-6.692800521850586
4.605937480926514;-38652.33203125;-9.773205757141113
4.605948209762573;-38666.4375;-10.658865928649902
4.605958700180054;-38674.0390625;-8.67773151397705
4.60596776008606;-38655.3515625;-5.5784077644348145
4.605976343154907;-38650.56640625;-3.7853517532348633
4.6059863567352295;-38674.75390625;-4.046214580535889
4.605996131896973;-38683.3359375;-5.652839660644531
4.606004476547241;-38660.40234375;-7.85256814956665
4.606014966964722;-38645.2265625;-9.327661514282227
4.606025218963623;-38663.0625;-8.018917083740234
4.606034994125366;-38679.0234375;-3.870609998703003
4.606045484542847;-38666.1015625;-0.19621782004833221
4.606054306030273;-38638.4296875;-0.15581874549388885
4.6060631275177;-38652.734375;-3.101975440979004
4.6060731410980225;-38673.63671875;-6.048778057098389
4.60608172416687;-38678.6640625;-7.334828853607178
4.606091022491455;-38649.62890625;-7.005851745605469
4.606099367141724;-38649.49609375;-4.971776962280273
4.606107711791992;-38678.73046875;-1.2155883312225342
4.606116771697998;-38672.33984375;2.656158685684204
4.606125831604004;-38663.46484375;4.247498989105225
4.606133937835693;-38656.89453125;3.057020664215088
4.606142520904541;-38668.5390625;0.9459518790245056
4.606151580810547;-38675.37890625;-0.5075864195823669
4.606160640716553;-38661.96875;-1.5920149087905884
4.606171369552612;-38649.76171875;-2.479618549346924
4.606180667877197;-38677.078125;-1.8185478448867798
4.606189489364624;-38682.12890625;0.9265205264091492
4.606199264526367;-38668.3359375;3.787358045578003
4.606209754943848;-38665.140625;4.788229942321777
4.60621976852417;-38682.3984375;4.2543463706970215
4.606229543685913;-38693.3046875;3.1110410690307617
4.606239318847656;-38679.89453125;0.8665745258331299
4.606248140335083;-38655.6875;-2.9290947914123535
4.60625696182251;-38666.9296875;-6.688891410827637
4.6062657833099365;-38675.06640625;-8.210644721984863
4.6062750816345215;-38672.02734375;-7.464234352111816
4.6062843799591064;-38671.51171875;-6.394610404968262
4.606293678283691;-38675.35546875;-6.19675874710083
4.606302738189697;-38692.3671875;-6.288864612579346
4.606311321258545;-38684.8125;-6.137020587921143
4.606320858001709;-38653.3828125;-6.235912322998047
4.606330156326294;-38664.29296875;-6.673181056976318
4.606339693069458;-38679.26953125;-6.67317533493042
4.606348752975464;-38670.4375;-6.062692642211914
4.606358051300049;-38653.33984375;-5.412202835083008
4.606367826461792;-38667.30859375;-4.600615501403809
4.606376647949219;-38678.1953125;-2.968740701675415
4.606386661529541;-38686.1953125;-1.2039154767990112
4.606396198272705;-38664.15625;-1.3609107732772827
4.606406211853027;-38655.08203125;-4.026242256164551
4.606415510177612;-38668.42578125;-6.918270111083984
4.606426954269409;-38676.6953125;-7.621691703796387
4.606435537338257;-38680.51953125;-6.287876605987549
4.606444835662842;-38662.546875;-4.2448015213012695
4.606454133987427;-38678.26171875;-1.617659091949463
4.606463193893433;-38694.80078125;1.851049780845642
4.606475114822388;-38672.98828125;4.988409042358398
4.606486082077026;-38651.5078125;6.205235481262207
4.606494665145874;-38666.1015625;5.457915306091309
4.606503963470459;-38681.19140625;3.6346378326416016
4.6065123081207275;-38663.75390625;1.0725942850112915
4.606520891189575;-38666.01171875;-1.7547807693481445
4.606529474258423;-38684.09375;-3.1770591735839844
4.60653829574585;-38696.63671875;-1.8455901145935059
4.606547117233276;-38685.125;1.1919986009597778
4.6065568923950195;-38662.9296875;3.616665840148926
4.6065661907196045;-38654.03125;4.5736403465271
4.606574773788452;-38664.5390625;4.682847499847412
4.606584072113037;-38675.04296875;3.994985818862915
4.606593370437622;-38661.72265625;2.2146928310394287
4.606602907180786;-38662.01171875;0.740302324295044
4.606612205505371;-38675.578125;1.6279343366622925
4.606621503829956;-38680.02734375;4.395195007324219
4.606630802154541;-38656.71484375;6.568689346313477
4.606640815734863;-38650.61328125;7.188786506652832
4.6066508293151855;-38667.8671875;7.3634748458862305
4.60666036605835;-38670.3046875;7.596354961395264
4.606668949127197;-38666.66015625;6.747025489807129
4.60667872428894;-38665.7890625;4.211547374725342
4.606687784194946;-38680.16015625;1.5140087604522705
4.60669732093811;-38680.38671875;0.4427078366279602
4.606705904006958;-38671.22265625;0.5932251214981079
4.606715679168701;-38656.42578125;0.2849966287612915
4.606725215911865;-38656.828125;-0.6143134832382202
4.606734037399292;-38670.26171875;-0.43496397137641907
4.606743335723877;-38667.7578125;1.7039097547531128
4.60675311088562;-38652.109375;4.6892991065979
4.606762170791626;-38666.01171875;7.2335309982299805
4.606772184371948;-38681.2109375;9.194337844848633
4.606783390045166;-38677.859375;10.317131996154785
4.606793642044067;-38659.84375;9.454658508300781
4.606804132461548;-38657.83203125;6.351672649383545
4.606814384460449;-38674.640625;2.927683115005493
4.60682487487793;-38687.26953125;1.4667257070541382
4.606835126876831;-38662.546875;2.34663462638855
4.606844902038574;-38657.40625;4.368717193603516
4.6068549156188965;-38673.6796875;6.331158638000488
4.606867551803589;-38696.1875;7.385246753692627
4.606881141662598;-38677.03125;6.7849955558776855
4.606891870498657;-38656.0;4.645227909088135
4.606902599334717;-38673.234375;2.3944437503814697
5.113994598388672;-38658.32421875;0.9845682382583618
5.114041805267334;-38651.0390625;-0.5518381595611572
5.1140663623809814;-38677.14453125;-3.0570197105407715
5.114089488983154;-38700.16796875;-5.120173454284668
5.114111423492432;-38691.80859375;-4.914577960968018
5.114130735397339;-38665.58984375;-2.780733823776245
5.1141462326049805;-38681.3671875;-0.4762314260005951
5.114159822463989;-38694.30859375;1.0270702838897705
5.114173650741577;-38674.91015625;1.8209154605865479
5.114187240600586;-38663.53125;1.8182262182235718
5.114200830459595;-38660.78125;0.7422375082969666
5.1142144203186035;-38678.171875;-0.6119381189346313
5.114228248596191;-38685.34765625;-0.7443221211433411
5.114248275756836;-38668.49609375;0.5536972880363464
5.114262104034424;-38664.984375;2.0015952587127686
5.114275693893433;-38699.0703125;2.8817081451416016
5.1142895221710205;-38687.15625;3.713433027267456
5.114303350448608;-38666.2578125;4.464334011077881
5.114316701889038;-38668.42578125;3.9521870613098145
5.114330530166626;-38674.6875;1.9672794342041016
5.114344358444214;-38689.81640625;0.26966360211372375
5.114358186721802;-38682.75390625;0.23993054032325745
5.1143717765808105;-38667.77734375;0.988319456577301
5.114385366439819;-38691.91796875;1.1137199401855469
5.114399194717407;-38694.30859375;0.8283185362815857
5.114412784576416;-38657.609375;0.7761527299880981
5.114426612854004;-38653.36328125;0.4231274724006653
5.114440441131592;-38685.52734375;-0.6236677169799805
5.11445426940918;-38702.06640625;-1.2798457145690918
5.114467620849609;-38681.75;-0.6135833859443665
5.114481449127197;-38663.46484375;0.525838315486908
5.114495038986206;-38681.75;0.9959518909454346
5.114508628845215;-38689.88671875;1.3188953399658203
5.114522218704224;-38674.796875;2.5625827312469482
5.1145360469818115;-38654.76953125;4.088253498077393
5.114549398422241;-38670.70703125;4.335614204406738
5.114564657211304;-38686.734375;3.5132076740264893
5.114578723907471;-38683.515625;3.3119451999664307
5.114592790603638;-38669.76953125;4.051795959472656
5.114606618881226;-38660.8046875;4.389036655426025
5.114619970321655;-38691.1796875;3.8801589012145996
5.114633798599243;-38691.671875;3.563183546066284
5.114647626876831;-38660.60546875;3.5459165573120117
5.11466121673584;-38652.625;2.316952705383301
5.114674806594849;-38682.3984375;-0.5179343819618225
5.114688396453857;-38689.66015625;-2.8943428993225098
5.114701986312866;-38663.17578125;-2.8478903770446777
5.114715576171875;-38663.48828125;-0.7514373660087585
5.114729404449463;-38686.59765625;2.022857904434204
5.114742994308472;-38701.6875;4.9825968742370605
5.1147565841674805;-38681.8828125;7.582837104797363
5.114770412445068;-38667.64453125;8.232038497924805
5.114784002304077;-38679.671875;6.317577362060547
5.114797592163086;-38694.1328125;3.7955453395843506
5.114811420440674;-38694.01953125;2.7757296562194824
5.114825248718262;-38675.4921875;2.792518138885498
5.1148388385772705;-38674.6640625;2.426790237426758
5.114852666854858;-38698.87109375;2.119861364364624
5.114866256713867;-38691.96484375;2.9968574047088623
5.114880084991455;-38672.203125;4.191104412078857
5.114893913269043;-38684.56640625;3.839810609817505
5.114907503128052;-38694.15234375;2.1854183673858643
5.1149208545684814;-38685.8828125;1.364698052406311
5.114934682846069;-38669.25390625;2.1378586292266846
5.114948511123657;-38674.6875;3.0795392990112305
5.114962339401245;-38699.83203125;3.133305311203003
5.114976167678833;-38706.76171875;2.7992255687713623
5.114989995956421;-38681.3671875;2.4295456409454346
5.11500358581543;-38668.71875;1.2918602228164673
5.1150171756744385;-38692.859375;-0.6931009888648987
5.115031003952026;-38697.05859375;-1.7892332077026367
5.115044832229614;-38677.09765625;-0.39051300287246704
5.115058422088623;-38661.1171875;2.942302703857422
5.11507248878479;-38681.16796875;6.354790687561035
5.115097522735596;-38692.23046875;8.375473976135254
5.115111351013184;-38679.24609375;8.07573127746582
5.115125417709351;-38671.7109375;5.033407211303711
5.1151392459869385;-38694.30859375;0.30604490637779236
5.115152835845947;-38697.1484375;-3.303346633911133
5.115166664123535;-38683.69140625;-3.404500961303711
5.115180492401123;-38663.0859375;-0.6009133458137512
5.115194320678711;-38680.7890625;2.1671628952026367
5.115208148956299;-38695.67578125;3.0238633155822754
5.115222454071045;-38681.5703125;2.5530383586883545
5.115236282348633;-38670.73046875;1.7241196632385254
5.115250110626221;-38678.91015625;0.7603545784950256
5.115263938903809;-38705.15234375;0.5033847093582153
5.1152777671813965;-38687.13671875;2.150763750076294
5.115291357040405;-38651.953125;5.0478973388671875
5.115305185317993;-38677.4140625;7.005131721496582
5.115319013595581;-38696.79296875;7.014130592346191
5.115332841873169;-38683.60546875;5.866468906402588
5.115346670150757;-38663.98046875;4.266400337219238
5.115360498428345;-38671.6015625;2.2439980506896973
5.115374326705933;-38690.265625;0.5908477306365967
5.1153881549835205;-38700.27734375;0.9861016273498535
5.115401983261108;-38679.06640625;3.82216739654541
5.115415811538696;-38669.90234375;7.20201301574707
5.115429162979126;-38684.72265625;9.176671981811523
5.115441560745239;-38702.6484375;9.83086109161377
5.115453720092773;-38692.6796875;9.822086334228516
5.115465879440308;-38672.65234375;8.283540725708008
5.115478277206421;-38669.41015625;4.24695348739624
5.115490198135376;-38687.24609375;-0.8263270258903503
5.115502595901489;-38685.83984375;-4.071680545806885
5.115515232086182;-38667.0859375;-4.533919811248779
5.115527391433716;-38668.31640625;-3.653639316558838
5.115539789199829;-38691.3828125;-2.407442569732666
5.115551948547363;-38697.953125;-0.3059384822845459
5.115564346313477;-38680.7421875;2.293222665786743
5.115576505661011;-38669.38671875;3.751704216003418
5.115588903427124;-38683.3359375;3.805828332901001
5.115600824356079;-38683.24609375;3.999028205871582
5.115613222122192;-38679.89453125;4.995479106903076
5.115625619888306;-38673.703125;5.774403095245361
5.11563777923584;-38688.20703125;5.8037238121032715
5.115648984909058;-38694.30859375;6.162787914276123
5.115659713745117;-38682.3515625;7.618818283081055
5.1156792640686035;-38669.1875;8.754325866699219
5.115689992904663;-38701.23828125;7.626979351043701
5.115700721740723;-38712.4140625;4.506430625915527
5.115711450576782;-38684.67578125;1.2285172939300537
5.115722179412842;-38671.80078125;-1.148517370223999
5.115732908248901;-38693.57421875;-2.4501912593841553
5.115743637084961;-38692.23046875;-2.319652795791626
5.1157546043396;-38691.6953125;-0.6986775398254395
5.115765333175659;-38678.46484375;1.1996214389801025
5.115776062011719;-38686.7109375;2.045006036758423
5.496291399002075;-38701.73046875;2.5169732570648193
5.496337890625;-38693.8203125;4.446915149688721
5.496362686157227;-38674.8203125;7.680013179779053
5.49638557434082;-38682.6875;9.903962135314941
5.496405363082886;-38695.49609375;9.87950325012207
5.4964210987091064;-38695.359375;8.732927322387695
5.496435165405273;-38672.359375;7.6004438400268555
5.496448993682861;-38679.51171875;6.318291187286377
5.496463060379028;-38699.78515625;5.191495418548584
5.496488094329834;-38704.859375;5.538280963897705
5.496501922607422;-38678.3515625;7.52761697769165
5.49651575088501;-38676.25;9.448431968688965
5.4965293407440186;-38693.70703125;9.863544464111328
5.4965431690216064;-38707.83203125;9.039929389953613
5.496562480926514;-38683.44921875;7.6478800773620605
5.496589422225952;-38676.40625;5.7008843421936035
5.496603488922119;-38703.40625;3.624957323074341
5.496617317199707;-38704.34765625;2.6302669048309326
5.496630668640137;-38686.01953125;2.9866394996643066
5.496644973754883;-38676.36328125;3.2816851139068604
5.496658802032471;-38698.17578125;2.563549518585205
5.496672630310059;-38704.83984375;2.118614912033081
5.496686220169067;-38686.5546875;3.670614004135132
5.496700048446655;-38674.796875;6.738643169403076
5.496713638305664;-38684.4765625;9.248922348022461
5.496727466583252;-38710.2265625;10.058588981628418
5.49674129486084;-38693.57421875;9.353317260742188
5.496754884719849;-38670.90625;7.096128463745117
5.4967687129974365;-38683.60546875;3.197870969772339
5.49678897857666;-38704.59375;-0.81964510679245
5.496802806854248;-38696.94921875;-2.5930731296539307
5.496816396713257;-38677.4140625;-1.7010560035705566
5.496830224990845;-38679.15625;0.10895012319087982
5.4968438148498535;-38712.7734375;1.6955658197402954
5.496857643127441;-38712.23828125;3.46006441116333
5.496877670288086;-38684.49609375;4.973001003265381
5.496891975402832;-38683.22265625;4.531318664550781
5.49690580368042;-38692.65625;2.33320689201355
5.496919870376587;-38703.921875;1.1308344602584839
5.496933460235596;-38678.375;2.474977493286133
5.496947288513184;-38672.4296875;4.7019243240356445
5.4969611167907715;-38702.42578125;5.516576766967773
5.49697470664978;-38708.32421875;4.747174263000488
5.496988534927368;-38685.9296875;3.5976743698120117
5.497001886367798;-38672.046875;2.6663172245025635
5.497015714645386;-38696.1875;2.0222699642181396
5.497029542922974;-38716.3046875;2.1849279403686523
5.497043132781982;-38684.87890625;3.6242451667785645
5.49705696105957;-38673.30078125;5.750637531280518
5.497070550918579;-38693.08203125;7.4686598777771
5.497084379196167;-38711.1171875;8.577676773071289
5.497098207473755;-38704.5703125;9.513312339782715
5.497112035751343;-38671.87109375;9.621522903442383
5.497125864028931;-38686.21875;7.519494533538818
5.4971394538879395;-38705.95703125;3.755610466003418
5.4971535205841064;-38701.62109375;1.0830557346343994
5.497167587280273;-38684.5859375;1.529251217842102
5.497181415557861;-38688.27734375;4.7155537605285645
5.497195243835449;-38706.22265625;9.205794334411621
5.497208833694458;-38713.80078125;14.130781173706055
5.497222661972046;-38688.41015625;18.876544952392578
5.497236490249634;-38678.6875;22.38607406616211
5.497250318527222;-38692.92578125;23.97991943359375
5.49726414680481;-38695.6953125;24.291278839111328
5.4972779750823975;-38684.609375;24.759267807006836
5.497291803359985;-38693.55078125;26.624359130859375
5.4973061084747314;-38705.30859375;30.6185245513916
5.497323989868164;-38712.9296875;37.05322265625
5.497337818145752;-38697.37109375;45.41028594970703
5.49735164642334;-38680.07421875;54.028778076171875
5.497365474700928;-38689.70703125;61.11078643798828
5.497379541397095;-38706.671875;65.99284362792969
5.497393369674683;-38711.1875;69.09574890136719
5.497412204742432;-38684.9453125;71.13965606689453
5.497425556182861;-38690.0859375;72.87210083007812
5.497439861297607;-38714.47265625;75.314697265625
5.497453689575195;-38699.8984375;79.37490844726562
5.497467279434204;-38672.4296875;84.8030014038086
5.497481107711792;-38689.7734375;90.35567474365234
5.49749493598938;-38705.64453125;95.0716781616211
5.497508764266968;-38701.0625;98.41608428955078
5.497522592544556;-38684.02734375;99.54924011230469
5.4975364208221436;-38694.7578125;98.00862884521484
5.497550010681152;-38710.0;95.42724609375
5.497564077377319;-38703.98828125;95.02588653564453
5.497579574584961;-38683.73828125;98.39466094970703
5.497598886489868;-38678.1484375;103.95294952392578
5.497614145278931;-38696.8125;109.18182373046875
5.4976277351379395;-38703.98828125;112.77947235107422
5.4976418018341064;-38685.63671875;114.13232421875
5.497655630111694;-38673.390625;112.66159057617188
5.497669696807861;-38702.9140625;108.92509460449219
5.497683525085449;-38721.06640625;105.07234954833984
5.497697353363037;-38704.45703125;102.87413787841797
5.497711181640625;-38689.97265625;101.85298919677734
5.497725009918213;-38691.73828125;100.3310317993164
6.012304067611694;-38711.74609375;97.76181030273438
6.012351989746094;-38677.90234375;94.52686309814453
6.012376546859741;-38688.6796875;89.96833038330078
6.012414932250977;-38715.7890625;83.1229019165039
6.012436151504517;-38705.41796875;75.3359375
6.012455463409424;-38676.80859375;69.46546936035156
6.012475490570068;-38689.125;66.28514099121094
6.0124897956848145;-38707.140625;63.879669189453125
6.0125086307525635;-38699.5625;60.57112121582031
6.012528896331787;-38690.21875;56.287296295166016
6.012549161911011;-38671.734375;51.204715728759766
6.012563705444336;-38697.171875;45.4312629699707
6.012577533721924;-38716.328125;39.895721435546875
6.012591361999512;-38699.5625;35.36079788208008
6.0126051902771;-38688.41015625;30.852678298950195
6.0126190185546875;-38706.44921875;24.79682731628418
6.012632846832275;-38710.0;17.50702476501465
6.012646675109863;-38696.9921875;11.283660888671875
6.012660503387451;-38690.33203125;7.71436071395874
6.012674331665039;-38697.73046875;5.701616287231445
6.012688159942627;-38714.359375;2.9973151683807373
6.012701988220215;-38701.62109375;-1.0042569637298584
6.012715816497803;-38669.2109375;-5.329052448272705
6.012729644775391;-38684.85546875;-9.393774032592773
6.0127434730529785;-38704.99609375;-13.07142162322998
6.012757062911987;-38704.68359375;-15.736889839172363
6.012770891189575;-38681.859375;-17.307661056518555
6.012784719467163;-38681.79296875;-19.58568000793457
6.012798547744751;-38710.94140625;-24.633333206176758
6.01281213760376;-38702.19921875;-31.918397903442383
6.012826204299927;-38673.72265625;-38.637977600097656
6.012840270996094;-38684.41015625;-42.94823455810547
6.012854337692261;-38695.359375;-45.2725715637207
6.012868165969849;-38702.4921875;-46.31367111206055
6.0128819942474365;-38685.52734375;-45.95668411254883
6.0129029750823975;-38683.0;-44.97932815551758
6.012916564941406;-38709.0390625;-45.637123107910156
6.012930393218994;-38699.65234375;-49.00902557373047
6.012944221496582;-38686.64453125;-53.631591796875
6.01295804977417;-38685.32421875;-58.20071792602539
6.012971878051758;-38702.15625;-63.263038635253906
6.01298975944519;-38714.984375;-68.58987426757812
6.013003587722778;-38686.15234375;-71.52857208251953
6.013017416000366;-38675.04296875;-70.2892837524414
6.013031244277954;-38686.0625;-67.04584503173828
6.013045072555542;-38698.84765625;-65.50592803955078
6.013059377670288;-38693.1484375;-66.93147277832031
6.013072967529297;-38679.87109375;-70.49378967285156
6.013086795806885;-38693.21484375;-75.45784759521484
6.013100624084473;-38717.04296875;-80.61973571777344
6.0131142139434814;-38701.1953125;-83.27691650390625
6.013128042221069;-38681.94921875;-81.4205551147461
6.013141870498657;-38688.43359375;-76.62982177734375
6.013155221939087;-38707.140625;-73.02108764648438
6.013169050216675;-38703.38671875;-73.27046203613281
6.013182878494263;-38676.65234375;-76.93702697753906
6.013196706771851;-38677.5;-81.99422454833984
6.0132105350494385;-38720.953125;-85.8055419921875
6.013224124908447;-38708.390625;-85.86345672607422
6.013237953186035;-38671.2421875;-82.66215515136719
6.013252019882202;-38678.62109375;-80.69268035888672
6.01326584815979;-38696.61328125;-83.99906921386719
6.013279438018799;-38707.09375;-91.61074829101562
6.013293266296387;-38690.7578125;-98.88230895996094
6.013307094573975;-38681.79296875;-102.4437255859375
6.0133209228515625;-38697.37109375;-102.51390838623047
6.01333475112915;-38699.0703125;-101.18997955322266
6.0133538246154785;-38689.90625;-100.27506256103516
6.013368129730225;-38677.94921875;-100.78050231933594
6.0133819580078125;-38689.34765625;-102.97191619873047
6.013396263122559;-38689.88671875;-105.92644500732422
6.0134100914001465;-38690.21875;-107.66901397705078
6.013423681259155;-38670.57421875;-106.86865234375
6.013437747955322;-38680.18359375;-104.23548126220703
6.01345157623291;-38710.44921875;-101.25689697265625
6.013465404510498;-38702.58203125;-98.14200592041016
6.013479232788086;-38673.703125;-94.62763977050781
6.013493299484253;-38681.30078125;-91.99723815917969
6.013507127761841;-38680.71875;-92.00760650634766
6.013520956039429;-38684.296875;-94.17666625976562
6.013534784317017;-38667.3984375;-96.09891510009766
6.0135486125946045;-38656.87109375;-96.3379898071289
6.013562440872192;-38672.16015625;-95.3746337890625
6.01357626914978;-38669.69921875;-93.73533630371094
6.013590097427368;-38661.90234375;-91.18476867675781
6.013603687286377;-38655.796875;-88.19861602783203
6.013617753982544;-38653.1171875;-86.1589584350586
6.013631582260132;-38642.6796875;-85.55753326416016
6.01364541053772;-38634.65234375;-85.8225326538086
6.013659477233887;-38609.55078125;-86.8834457397461
6.013673305511475;-38619.96875;-88.93502044677734
6.0136871337890625;-38611.7421875;-90.63844299316406
6.01370096206665;-38603.94140625;-89.55402374267578
6.0137364864349365;-38594.6875;-85.19100952148438
6.0137505531311035;-38594.9140625;-80.28199005126953
6.013764381408691;-38587.35546875;-78.07244873046875
6.013778209686279;-38584.78515625;-79.165283203125
6.013792037963867;-38558.48046875;-81.66020202636719
6.013810396194458;-38557.62890625;-83.64671325683594
6.013824224472046;-38561.40625;-84.58624267578125
6.013838291168213;-38543.703125;-84.72501373291016
6.013852119445801;-38536.12890625;-84.47517395019531
6.013866186141968;-38538.5625;-84.2904281616211
6.013880014419556;-38552.82421875;-84.02499389648438
6.013894081115723;-38540.28515625;-82.46793365478516
6.013912677764893;-38511.80859375;-78.7078628540039
6.013927221298218;-38493.75;-73.91653442382812
6.013941049575806;-38515.8984375;-70.19732666015625
6.0139548778533936;-38500.54296875;-67.579833984375
6.0139689445495605;-38487.734375;-64.2394027709961
6.013982772827148;-38478.32421875;-60.067142486572266
6.014004468917847;-38497.99609375;-57.56343078613281
6.014018535614014;-38493.2578125;-58.247440338134766
6.014032602310181;-38474.83984375;-60.17936325073242
6.0140464305877686;-38464.17578125;-60.307456970214844
6.014060735702515;-38472.3359375;-57.88150405883789
6.0140745639801025;-38482.83984375;-54.16362762451172
6.01408839225769;-38473.765625;-50.3084831237793
6.014102220535278;-38451.859375;-47.35670852661133
6.014116287231445;-38471.28515625;-46.6562385559082
6.014130115509033;-38497.7734375;-48.21563720703125
6.0141441822052;-38478.97265625;-49.87571334838867
6.014158010482788;-38452.1953125;-49.63229751586914
6.014171838760376;-38462.390625;-47.85832977294922
6.014185190200806;-38483.19921875;-46.24137496948242
6.014197587966919;-38479.53125;-45.33495330810547
6.014283895492554;-38459.2578125;-44.456932067871094
6.014297246932983;-38472.24609375;-43.450721740722656
6.520362615585327;-38470.5234375;-42.62889099121094
6.520412445068359;-38459.9296875;-41.328399658203125
6.520448923110962;-38483.80078125;-38.64789581298828
6.520465135574341;-38493.48046875;-35.45393371582031
6.520479440689087;-38494.77734375;-33.77127456665039
6.520493745803833;-38474.01171875;-33.99298095703125
6.520513296127319;-38471.015625;-34.16416549682617
6.52053165435791;-38481.25390625;-32.2611198425293
6.520545244216919;-38501.75;-27.857440948486328
6.520558834075928;-38489.03125;-21.722671508789062
6.5205724239349365;-38474.078125;-15.533851623535156
6.520586013793945;-38490.26171875;-12.02303409576416
6.520599603652954;-38499.24609375;-13.490737915039062
6.520613193511963;-38480.359375;-19.065149307250977
6.520626783370972;-38472.6484375;-24.414655685424805
6.5206403732299805;-38493.97265625;-25.508501052856445
6.52065372467041;-38513.26171875;-22.24464225769043
6.520667314529419;-38509.99609375;-17.504192352294922
6.520681142807007;-38487.01953125;-13.56633472442627
6.520694732666016;-38493.79296875;-10.87608814239502
6.520708322525024;-38510.19921875;-9.50714111328125
6.520721912384033;-38509.3046875;-9.469578742980957
6.520735263824463;-38482.19140625;-9.532759666442871
6.520748853683472;-38486.39453125;-8.046221733093262
6.52076268196106;-38510.64453125;-5.350265979766846
6.520776271820068;-38522.08984375;-3.6523261070251465
6.520789623260498;-38490.9765625;-4.137648582458496
6.520803213119507;-38494.0390625;-5.637947082519531
6.520817041397095;-38532.86328125;-6.5759358406066895
6.5208306312561035;-38532.171875;-6.622142314910889
6.520844221115112;-38500.07421875;-5.587115287780762
6.5208580493927;-38480.96484375;-2.696101665496826
6.52087140083313;-38510.17578125;1.441480040550232
6.520884990692139;-38532.4375;4.1926140785217285
6.520905256271362;-38507.828125;3.9223294258117676
6.520918846130371;-38503.47265625;1.9137252569198608
6.52093243598938;-38529.9140625;0.16800662875175476
6.520946025848389;-38536.44140625;-0.9436995387077332
6.520959377288818;-38512.09765625;-1.6656126976013184
6.520972728729248;-38490.08203125;-1.1952075958251953
6.520991325378418;-38505.4140625;1.2562084197998047
6.521004915237427;-38523.0078125;4.748173236846924
6.5210182666778564;-38531.3671875;7.515275955200195
6.521031856536865;-38508.7890625;9.104815483093262
6.521045446395874;-38526.62890625;10.316851615905762
6.521058797836304;-38534.875;11.421650886535645
6.521074533462524;-38498.64453125;12.10828971862793
6.521091938018799;-38491.15625;12.892642974853516
6.521105527877808;-38539.75;14.403119087219238
6.521118640899658;-38556.109375;15.475846290588379
6.521132230758667;-38545.625;14.314014434814453
6.521145820617676;-38524.05859375;11.390830039978027
6.521159410476685;-38528.171875;9.125728607177734
6.521172761917114;-38545.94140625;8.886499404907227
6.521186351776123;-38543.5703125;9.983083724975586
6.521199703216553;-38542.765625;11.509529113769531
6.521212816238403;-38545.22265625;13.588018417358398
6.521226406097412;-38556.01953125;16.220949172973633
6.521239995956421;-38560.08984375;18.43802833557129
6.52125358581543;-38547.234375;19.640438079833984
6.5212671756744385;-38539.5234375;20.356082916259766
6.521280527114868;-38548.0390625;20.816389083862305
6.521294116973877;-38562.2109375;20.359848022460938
6.521307945251465;-38542.765625;19.032577514648438
6.521321535110474;-38524.70703125;18.2462215423584
6.521335124969482;-38548.01953125;18.86079216003418
6.521366834640503;-38567.6875;19.897417068481445
6.52138090133667;-38555.8203125;20.371244430541992
6.521394729614258;-38541.24609375;21.29620933532715
6.521408557891846;-38543.83984375;24.30156135559082
6.521422386169434;-38562.9921875;28.999664306640625
6.521435976028442;-38557.96484375;33.17681884765625
6.52144980430603;-38536.26171875;35.13115692138672
6.521463394165039;-38542.72265625;34.66831970214844
6.52147650718689;-38563.44140625;32.175315856933594
6.5214903354644775;-38556.421875;28.376863479614258
6.521503686904907;-38539.81640625;25.178119659423828
6.521517276763916;-38561.5859375;24.677547454833984
6.521530866622925;-38572.2265625;26.65635871887207
6.521544456481934;-38568.0234375;28.800241470336914
6.521558046340942;-38541.0234375;29.970842361450195
6.521571636199951;-38536.28515625;31.444095611572266
6.52158522605896;-38562.8828125;34.32908248901367
6.521598815917969;-38569.4296875;37.8333854675293
6.5216124057769775;-38568.15625;40.88681411743164
6.521625995635986;-38557.1171875;43.52838134765625
6.521639585494995;-38559.53125;45.49172592163086
6.521653175354004;-38575.5546875;45.110504150390625
6.521666526794434;-38567.57421875;41.600704193115234
6.521680116653442;-38571.421875;37.30561828613281
6.521693706512451;-38573.72265625;35.55096435546875
6.521707534790039;-38583.3359375;36.985111236572266
6.521721124649048;-38567.0625;39.7308464050293
6.521734714508057;-38553.29296875;42.329498291015625
6.521748304367065;-38562.50390625;44.550323486328125
6.521761894226074;-38584.18359375;45.69272994995117
6.521775245666504;-38570.8828125;44.50050735473633
6.521788835525513;-38539.7265625;41.24421691894531
6.521806478500366;-38545.44921875;37.846492767333984
6.521820068359375;-38582.1484375;35.393028259277344
6.521833896636963;-38581.3671875;33.3986701965332
6.521847724914551;-38567.2421875;31.67761993408203
6.52186131477356;-38543.99609375;30.728912353515625
6.521874904632568;-38563.91015625;30.194774627685547
6.521892547607422;-38572.44921875;29.080337524414062
6.521906137466431;-38554.92578125;27.69683265686035
6.5219199657440186;-38549.875;27.620485305786133
6.521933555603027;-38578.23828125;29.21616554260254
6.521947145462036;-38580.7421875;30.59488868713379
6.521960735321045;-38559.1484375;29.943950653076172
6.521974325180054;-38554.0546875;27.86722183227539
6.521988153457642;-38569.2734375;26.34540367126465
6.522001504898071;-38577.703125;26.45282554626465
6.522015333175659;-38576.671875;28.420547485351562
6.522028684616089;-38554.5;32.617645263671875
6.522050619125366;-38570.48046875;38.67485046386719
6.522064447402954;-38584.69921875;44.50115203857422
6.522078037261963;-38566.30078125;47.63938522338867
6.522096872329712;-38552.01953125;47.13593292236328
6.522110939025879;-38564.7578125;43.37732696533203
6.522124528884888;-38583.1328125;37.198402404785156
6.5221381187438965;-38582.328125;30.36124038696289
6.522151708602905;-38559.12890625;26.082387924194336
6.5221638679504395;-38557.94140625;27.346311569213867
6.522176027297974;-38564.71484375;34.08340072631836
6.522188186645508;-38552.04296875;42.82987976074219
6.522200584411621;-38544.80078125;49.60629653930664
6.522212505340576;-38558.5234375;52.07771301269531
7.036869287490845;-38587.53515625;49.168251037597656
7.036901235580444;-38565.23046875;41.27698516845703
7.036928415298462;-38545.60546875;31.556493759155273
7.036942481994629;-38564.515625;24.522762298583984
7.036952257156372;-38573.4765625;22.24234962463379
7.036961555480957;-38570.79296875;23.079130172729492
7.036970615386963;-38551.37109375;24.594009399414062
7.03697943687439;-38560.89453125;26.023754119873047
7.0369884967803955;-38580.76171875;27.123741149902344
7.0369977951049805;-38562.546875;26.80596923828125
7.037010431289673;-38546.4765625;24.711946487426758
7.037021636962891;-38554.12109375;22.566619873046875
7.037030458450317;-38576.8515625;22.191030502319336
7.037039279937744;-38577.61328125;23.081689834594727
7.03704833984375;-38560.578125;23.432708740234375
7.037057399749756;-38559.1953125;22.883541107177734
7.0370659828186035;-38573.6328125;22.612577438354492
7.0371246337890625;-38578.9296875;22.98090362548828
7.037133455276489;-38546.3203125;22.947019577026367
7.037142515182495;-38545.58203125;21.967885971069336
7.037151575088501;-38581.56640625;20.695451736450195
7.037160158157349;-38580.2734375;19.56200408935547
7.0371692180633545;-38562.8828125;18.36665916442871
7.037177801132202;-38557.33984375;17.54359245300293
7.037186861038208;-38577.90234375;18.28398323059082
7.037195444107056;-38586.57421875;20.830869674682617
7.0372045040130615;-38564.625;23.711406707763672
7.037213087081909;-38555.3515625;25.330842971801758
7.037222385406494;-38567.91015625;25.55257797241211
7.037231206893921;-38577.0078125;25.068742752075195
7.037240028381348;-38570.75;24.266826629638672
7.037248849868774;-38554.0546875;23.66080665588379
7.037257671356201;-38563.88671875;24.193334579467773
7.037266731262207;-38578.9765625;25.88615608215332
7.037278890609741;-38565.67578125;27.54071044921875
7.037287950515747;-38545.15625;28.880502700805664
7.037296533584595;-38569.51953125;31.07606315612793
7.037305593490601;-38591.71484375;33.833648681640625
7.0373146533966064;-38579.35546875;34.206016540527344
7.037323474884033;-38559.57421875;30.220012664794922
7.037335395812988;-38569.6328125;24.205642700195312
7.037344217300415;-38579.80078125;20.701515197753906
7.037353277206421;-38580.31640625;21.793231964111328
7.0373618602752686;-38566.30078125;25.983951568603516
7.037370681762695;-38555.88671875;30.835477828979492
7.037379503250122;-38582.0390625;34.471641540527344
7.037388324737549;-38575.01953125;34.98288345336914
7.037397146224976;-38561.921875;31.369726181030273
7.0374062061309814;-38563.23828125;25.545774459838867
7.037415027618408;-38584.8984375;21.24300765991211
7.037423849105835;-38583.22265625;20.4177188873291
7.037432909011841;-38565.609375;22.102920532226562
7.037441730499268;-38562.76953125;24.91316032409668
7.037450551986694;-38580.02734375;28.749614715576172
7.037459135055542;-38591.0234375;33.085243225097656
7.037468194961548;-38567.3515625;35.59829330444336
7.0374767780303955;-38550.03125;34.56246566772461
7.037485837936401;-38560.40234375;31.5221004486084
7.037494421005249;-38571.30859375;29.560321807861328
7.0375049114227295;-38568.13671875;29.607418060302734
7.037515640258789;-38565.40625;30.52230453491211
7.0375261306762695;-38566.30078125;31.957326889038086
7.0375354290008545;-38591.671875;34.49153137207031
7.037544250488281;-38575.62109375;37.32316970825195
7.037552833557129;-38556.109375;38.303348541259766
7.037561655044556;-38565.1171875;36.53087615966797
7.037574052810669;-38584.71875;33.33867263793945
7.037583112716675;-38586.62109375;30.512874603271484
7.0375916957855225;-38551.1484375;28.97319793701172
7.037600517272949;-38553.8515625;29.34583282470703
7.037609100341797;-38569.69921875;31.876441955566406
7.037617921829224;-38567.12890625;35.038700103759766
7.03762674331665;-38551.28125;36.29557418823242
7.037635326385498;-38543.52734375;35.39912796020508
7.037643671035767;-38573.12109375;34.89124298095703
7.037652492523193;-38590.33203125;36.160465240478516
7.037661075592041;-38563.6875;37.342220306396484
7.037669897079468;-38546.96875;36.418357849121094
7.037678241729736;-38558.25390625;34.052886962890625
7.037687063217163;-38574.66015625;31.990602493286133
7.037695646286011;-38563.12890625;30.666048049926758
7.037704229354858;-38546.69921875;29.843990325927734
7.037713050842285;-38554.1875;29.94991111755371
7.037721872329712;-38581.32421875;31.023174285888672
7.03773045539856;-38573.74609375;31.402292251586914
7.037739038467407;-38557.94140625;29.270648956298828
7.037747621536255;-38561.765625;25.13047218322754
7.037756443023682;-38590.28515625;21.199630737304688
7.037765026092529;-38576.8984375;18.776700973510742
7.037773609161377;-38562.8359375;17.785503387451172
7.037782192230225;-38576.49609375;18.225086212158203
7.037791013717651;-38592.67578125;20.261842727661133
7.037799596786499;-38584.5859375;23.166847229003906
7.037808418273926;-38566.3671875;25.581768035888672
7.037817001342773;-38564.84765625;26.969959259033203
7.0378258228302;-38586.953125;27.595924377441406
7.037834167480469;-38597.1484375;26.930709838867188
7.037845849990845;-38584.2265625;23.838706970214844
7.037854433059692;-38570.3046875;18.893657684326172
7.037863254547119;-38583.22265625;14.67694091796875
7.037871599197388;-38587.46875;12.927887916564941
7.0378804206848145;-38561.09375;12.99461841583252
7.037889003753662;-38554.30078125;13.713268280029297
7.037897825241089;-38564.625;14.836141586303711
7.037909507751465;-38575.421875;15.765387535095215
7.037918329238892;-38569.20703125;14.97082805633545
7.037926912307739;-38570.1015625;12.105440139770508
7.037935733795166;-38591.89453125;9.282952308654785
7.037944316864014;-38595.13671875;8.866515159606934
7.037952661514282;-38584.140625;10.873310089111328
7.037961483001709;-38558.8125;13.67507266998291
7.0379698276519775;-38553.78515625;16.360984802246094
7.037978649139404;-38565.83203125;18.837093353271484
7.037987232208252;-38572.26953125;20.33005714416504
7.037996053695679;-38553.29296875;19.888675689697266
7.038004398345947;-38575.5546875;18.22822380065918
7.038012981414795;-38603.18359375;17.270009994506836
7.038021564483643;-38593.66015625;17.62641143798828
7.03803014755249;-38572.875;18.118553161621094
7.038038492202759;-38575.69140625;18.114744186401367
7.0380473136901855;-38594.6875;18.461111068725586
7.038055896759033;-38602.734375;19.496923446655273
7.038064479827881;-38578.23828125;20.04543113708496
7.0380730628967285;-38575.109375;19.33219337463379
7.038081645965576;-38603.1171875;18.40381622314453
7.038090229034424;-38606.17578125;18.311397552490234
7.038098573684692;-38589.14453125;18.2666072845459
7.038107395172119;-38575.2421875;17.39205551147461
7.4199323654174805;-38595.3828125;16.749027252197266
7.419980049133301;-38607.65234375;17.624160766601562
7.419997215270996;-38601.83984375;19.292238235473633
7.420012474060059;-38581.5234375;20.156055450439453
7.420026779174805;-38589.30078125;19.99640655517578
7.420040845870972;-38610.4453125;19.657058715820312
7.42005467414856;-38604.859375;19.138233184814453
7.4200685024261475;-38593.32421875;17.698497772216797
7.4200828075408936;-38598.265625;15.68298053741455
7.420096158981323;-38616.4140625;14.514703750610352
7.420109987258911;-38606.33203125;14.71061897277832
7.42012357711792;-38593.390625;15.233407974243164
7.420137405395508;-38590.12890625;15.096601486206055
7.420150995254517;-38602.35546875;14.303536415100098
7.4201648235321045;-38610.3125;12.792448043823242
7.420178651809692;-38597.01171875;10.194880485534668
7.420192241668701;-38595.44921875;7.2632293701171875
7.42020583152771;-38605.953125;5.76398229598999
7.420219421386719;-38610.78125;6.161458969116211
7.420233249664307;-38589.75;6.9249587059021
7.420246839523315;-38589.390625;6.931238174438477
7.420260667800903;-38611.00390625;6.742838382720947
7.42027473449707;-38607.33984375;6.464450836181641
7.420288562774658;-38574.81640625;4.597870826721191
7.420302152633667;-38576.47265625;0.6255311965942383
7.420315742492676;-38614.73828125;-3.2093348503112793
7.420329332351685;-38629.9375;-4.286678314208984
7.4203431606292725;-38609.9765625;-2.420842170715332
7.420356512069702;-38585.8359375;0.7012050151824951
7.420370101928711;-38591.44921875;3.4861326217651367
7.42038369178772;-38604.8125;4.785120010375977
7.420397520065308;-38602.06640625;3.6983206272125244
7.4204113483428955;-38578.171875;0.6562836766242981
7.420429229736328;-38605.55078125;-2.106527090072632
7.420442819595337;-38625.01953125;-2.6243209838867188
7.420456647872925;-38615.25390625;-1.273946762084961
7.420470237731934;-38593.9296875;0.1264004111289978
7.420483827590942;-38597.328125;0.6897140145301819
7.42049765586853;-38613.64453125;1.0057156085968018
7.420516014099121;-38613.3984375;1.7211133241653442
7.420529842376709;-38585.859375;2.988368034362793
7.420543432235718;-38580.16015625;5.379823684692383
7.420557498931885;-38606.01953125;9.395830154418945
7.420571327209473;-38622.5625;13.540552139282227
7.4205851554870605;-38601.8203125;14.845510482788086
7.42059850692749;-38582.10546875;11.992444038391113
7.420612335205078;-38593.97265625;6.502175807952881
7.420626163482666;-38619.36328125;0.5482161045074463
7.420639753341675;-38595.26953125;-4.81706428527832
7.420653343200684;-38576.203125;-8.644112586975098
7.420666933059692;-38588.5625;-9.314840316772461
7.42068076133728;-38606.421875;-6.512606620788574
7.420694589614868;-38609.1484375;-2.6317050457000732
7.420708656311035;-38591.60546875;-0.6250756978988647
7.420725107192993;-38597.125;-1.254677653312683
7.420743227005005;-38604.45703125;-3.367629051208496
7.420757055282593;-38601.70703125;-5.904717922210693
7.420770645141602;-38576.78515625;-8.54419994354248
7.42078423500061;-38586.93359375;-10.824767112731934
7.42079758644104;-38611.83203125;-12.064591407775879
7.420811414718628;-38609.41796875;-12.54491138458252
7.420825004577637;-38571.77734375;-13.323458671569824
7.420838117599487;-38569.18359375;-14.433022499084473
7.420850515365601;-38607.25;-14.834718704223633
7.420862913131714;-38609.0390625;-14.35494327545166
7.420880556106567;-38590.33203125;-13.988349914550781
7.420893430709839;-38580.3828125;-13.967842102050781
7.420906066894531;-38602.421875;-13.29008960723877
7.420918226242065;-38603.78515625;-11.828482627868652
7.420930624008179;-38588.609375;-11.022360801696777
7.420943021774292;-38577.9453125;-11.500825881958008
7.420955181121826;-38600.96875;-11.889054298400879
7.42096734046936;-38614.29296875;-11.115275382995605
7.420979738235474;-38610.91796875;-10.45360279083252
7.420992374420166;-38587.73828125;-11.884242057800293
7.4210045337677;-38606.265625;-15.209463119506836
7.421017169952393;-38613.80078125;-18.33450698852539
7.421029329299927;-38601.6171875;-19.834386825561523
7.421041488647461;-38589.9296875;-19.539226531982422
7.421052932739258;-38595.8515625;-17.309661865234375
7.421063661575317;-38600.65625;-13.469867706298828
7.421074390411377;-38602.5546875;-10.298495292663574
7.421084880828857;-38579.734375;-10.640693664550781
7.421095371246338;-38597.52734375;-14.4004487991333
7.4211061000823975;-38617.82421875;-18.44757080078125
7.421116828918457;-38619.1640625;-20.3660888671875
7.4211273193359375;-38595.6484375;-20.266448974609375
7.421138286590576;-38593.7734375;-18.941701889038086
7.421149015426636;-38617.890625;-16.60348892211914
7.421159744262695;-38613.3515625;-13.901549339294434
7.421170711517334;-38595.31640625;-12.330053329467773
7.4211812019348145;-38596.85546875;-12.715496063232422
7.421191930770874;-38621.51171875;-14.240151405334473
7.421210050582886;-38628.0390625;-15.645599365234375
7.421221017837524;-38603.40625;-16.42028045654297
7.421231985092163;-38596.41015625;-16.130157470703125
7.938890218734741;-38616.52734375;-14.207119941711426
7.938944339752197;-38601.9765625;-11.549423217773438
7.938960075378418;-38585.50390625;-10.599740982055664
7.938973665237427;-38601.6640625;-12.434823989868164
7.9389870166778564;-38615.67578125;-15.085362434387207
7.938998222351074;-38604.5;-15.913565635681152
7.93900990486145;-38589.59375;-14.55344295501709
7.939026832580566;-38588.85546875;-12.434123992919922
7.93903660774231;-38614.203125;-10.631400108337402
7.9390480518341064;-38607.4296875;-9.689903259277344
7.939059734344482;-38584.18359375;-10.544341087341309
7.9390692710876465;-38588.51953125;-13.622824668884277
7.9390785694122314;-38604.5;-17.342632293701172
7.939088344573975;-38610.71484375;-19.305784225463867
7.93909764289856;-38590.75390625;-19.05020523071289
7.939106702804565;-38579.265625;-18.153858184814453
7.939117431640625;-38603.80859375;-17.603313446044922
7.939128875732422;-38617.75390625;-17.041027069091797
7.939137935638428;-38583.8046875;-16.955198287963867
7.939147472381592;-38577.6328125;-18.77071189880371
7.939156770706177;-38596.85546875;-21.99421501159668
7.939166307449341;-38600.703125;-24.10176658630371
7.939175367355347;-38595.13671875;-23.85490608215332
7.939184904098511;-38577.7890625;-22.35792350769043
7.939194679260254;-38589.97265625;-20.50444221496582
7.93920373916626;-38607.67578125;-17.78135108947754
7.939213275909424;-38596.92578125;-14.404508590698242
7.939222812652588;-38581.61328125;-12.59264850616455
7.939232110977173;-38587.1328125;-14.37356185913086
7.939241409301758;-38594.21875;-19.084850311279297
7.939250707626343;-38604.5234375;-24.196596145629883
7.939260244369507;-38580.3828125;-27.797243118286133
7.939269304275513;-38593.4609375;-29.004037857055664
7.9392828941345215;-38610.3359375;-27.225189208984375
7.9392924308776855;-38603.2734375;-22.944631576538086
7.93930196762085;-38586.23828125;-18.459672927856445
7.9393110275268555;-38583.24609375;-16.28412628173828
7.9393205642700195;-38608.32421875;-16.999269485473633
7.9393298625946045;-38607.80859375;-19.432790756225586
7.93933892250061;-38583.15625;-22.47327995300293
7.939348220825195;-38583.19921875;-25.459575653076172
7.939357757568359;-38617.8671875;-27.02623748779297
7.939367055892944;-38622.40625;-25.566669464111328
7.939376354217529;-38596.72265625;-21.687881469726562
7.939385890960693;-38586.640625;-18.493000030517578
7.939395427703857;-38599.09375;-18.258651733398438
7.939404487609863;-38602.95703125;-20.32903480529785
7.939414024353027;-38592.85546875;-22.970949172973633
7.939423561096191;-38589.8828125;-25.367450714111328
7.939432621002197;-38607.875;-27.069509506225586
7.939441919326782;-38613.3515625;-27.41771125793457
7.939451456069946;-38594.48828125;-26.544822692871094
7.939460754394531;-38583.69140625;-25.63412857055664
7.939470052719116;-38598.82421875;-25.501190185546875
7.939479827880859;-38604.27734375;-25.95366096496582
7.939489126205444;-38602.17578125;-26.83522605895996
7.939498424530029;-38587.55859375;-28.597030639648438
7.939507722854614;-38587.6484375;-31.174354553222656
7.939517259597778;-38598.64453125;-33.04561233520508
7.939526319503784;-38586.75390625;-32.49351119995117
7.939535856246948;-38560.37890625;-29.630695343017578
7.939545154571533;-38573.09765625;-26.213335037231445
7.939554929733276;-38596.85546875;-23.575204849243164
7.939563989639282;-38598.7109375;-21.722517013549805
7.939573526382446;-38584.78515625;-20.47270965576172
7.939586162567139;-38589.703125;-20.30681800842285
7.939595460891724;-38604.078125;-21.406787872314453
7.9396045207977295;-38614.1796875;-22.905752182006836
7.939613580703735;-38579.01953125;-23.902612686157227
7.939623117446899;-38577.12109375;-24.029075622558594
7.939633131027222;-38592.5859375;-22.569318771362305
7.939650058746338;-38605.73046875;-18.7166748046875
7.939661264419556;-38592.6328125;-13.436168670654297
7.93967342376709;-38586.41796875;-9.464568138122559
7.939685106277466;-38596.90234375;-8.419848442077637
7.939696788787842;-38600.1640625;-9.130806922912598
7.939709663391113;-38607.4296875;-9.670928001403809
7.939719200134277;-38586.10546875;-9.787105560302734
7.9397289752960205;-38596.6796875;-10.256367683410645
7.939738035202026;-38613.9765625;-10.85180377960205
7.93974757194519;-38605.4609375;-10.61959171295166
7.939756870269775;-38587.46875;-9.961682319641113
7.9397666454315186;-38595.62890625;-10.361021995544434
7.9397759437561035;-38609.55078125;-11.697651863098145
7.9397852420806885;-38607.921875;-12.20643138885498
7.939794540405273;-38583.89453125;-11.493053436279297
7.939803838729858;-38584.65234375;-11.074294090270996
7.9398133754730225;-38611.8984375;-11.633285522460938
7.9398229122161865;-38607.875;-12.161748886108398
7.939831972122192;-38585.1015625;-12.08936595916748
7.9398417472839355;-38581.1640625;-12.01920223236084
7.9398510456085205;-38597.81640625;-11.868759155273438
7.939861059188843;-38618.47265625;-10.239086151123047
7.939870357513428;-38607.85546875;-6.708453178405762
7.939879894256592;-38590.30859375;-3.420461416244507
7.939889430999756;-38600.5;-2.8842313289642334
7.939899206161499;-38611.20703125;-5.171785831451416
7.939927101135254;-38591.78125;-8.65373420715332
7.939937114715576;-38579.69140625;-12.000700950622559
7.939946413040161;-38587.9609375;-13.940434455871582
7.939959764480591;-38624.68359375;-12.777155876159668
7.939972162246704;-38612.79296875;-8.313103675842285
7.939985752105713;-38586.8671875;-3.3768632411956787
7.939997911453247;-38592.72265625;-1.3874187469482422
7.940009117126465;-38611.09375;-2.8543243408203125
7.940018653869629;-38605.23828125;-5.925448417663574
7.940028429031372;-38584.67578125;-9.357629776000977
7.940037727355957;-38591.0234375;-12.769006729125977
7.940047025680542;-38601.03515625;-14.893345832824707
7.940056562423706;-38607.13671875;-14.201687812805176
7.94006609916687;-38595.0234375;-11.258256912231445
7.940075635910034;-38589.3671875;-8.493208885192871
7.940084934234619;-38605.171875;-7.307835102081299
7.940094470977783;-38601.125;-6.933341026306152
7.940104007720947;-38579.265625;-6.381392955780029
7.940113306045532;-38580.5625;-5.705306053161621
7.940122842788696;-38610.19921875;-4.83201265335083
7.940132141113281;-38611.2734375;-3.1287803649902344
7.940141677856445;-38592.20703125;-1.088808536529541
7.94015097618103;-38577.45703125;-0.7268248200416565
7.940160512924194;-38591.515625;-3.0727858543395996
7.940170049667358;-38601.03515625;-6.5822834968566895
7.940179347991943;-38587.2890625;-9.045255661010742
7.940188646316528;-38582.171875;-9.73800277709961
7.940197944641113;-38595.78515625;-8.858248710632324
7.940207481384277;-38614.78125;-6.336616516113281
7.940216541290283;-38597.70703125;-2.431501865386963
7.940225839614868;-38583.37890625;1.5992413759231567
8.443104267120361;-38607.62890625;4.917860984802246
8.443127870559692;-38606.17578125;8.080767631530762
8.443141222000122;-38579.578125;10.756447792053223
8.443153619766235;-38586.7109375;10.182479858398438
8.44316577911377;-38630.16015625;4.397984504699707
8.443180084228516;-38606.19921875;-4.418116092681885
8.44319462776184;-38587.8046875;-12.090249061584473
8.44321060180664;-38589.078125;-17.04098129272461
8.443230390548706;-38612.28125;-20.907548904418945
8.443245887756348;-38607.09375;-25.08583641052246
8.443257331848145;-38575.95703125;-29.018218994140625
8.443268537521362;-38582.015625;-32.378787994384766
8.443279504776001;-38598.69140625;-36.49181365966797
8.443290948867798;-38616.70703125;-42.40191650390625
8.443301916122437;-38607.5859375;-49.238037109375
8.443313121795654;-38595.40234375;-55.66191864013672
8.443324327468872;-38608.66015625;-61.85106658935547
8.44333553314209;-38615.83203125;-68.68251037597656
8.44334626197815;-38591.60546875;-75.85955047607422
8.443357229232788;-38585.74609375;-82.67513275146484
8.443368196487427;-38599.58203125;-89.6802978515625
8.443379163742065;-38607.5390625;-97.39962768554688
8.443390130996704;-38605.5078125;-104.32820892333984
8.443401575088501;-38595.0703125;-108.4611587524414
8.44341254234314;-38604.74609375;-110.09774017333984
8.443423509597778;-38618.76171875;-111.28262329101562
8.443434476852417;-38608.76953125;-113.20630645751953
8.443445444107056;-38586.62109375;-115.87149047851562
8.443456411361694;-38583.9609375;-119.37311553955078
8.443467855453491;-38614.26953125;-123.43497467041016
8.44347882270813;-38619.92578125;-126.49551391601562
8.443490028381348;-38594.98046875;-127.13105010986328
8.443501234054565;-38601.75;-125.87057495117188
8.443512678146362;-38614.1796875;-124.32710266113281
8.443523645401001;-38617.66796875;-122.83553314208984
8.44353461265564;-38598.9140625;-120.30290222167969
8.443545579910278;-38602.71484375;-116.58926391601562
8.443556547164917;-38618.47265625;-113.2596664428711
8.443567991256714;-38613.6875;-111.12593841552734
8.443578958511353;-38607.16015625;-108.71379089355469
8.44359016418457;-38609.171875;-104.11063385009766
8.44360089302063;-38623.23046875;-96.98016357421875
8.443612098693848;-38629.55859375;-88.1922607421875
8.443623065948486;-38617.44140625;-78.85655212402344
8.443634271621704;-38603.8515625;-70.36592102050781
8.443645238876343;-38607.875;-63.996795654296875
8.443656206130981;-38621.17578125;-59.275062561035156
8.44366717338562;-38613.5078125;-53.80776596069336
8.443678379058838;-38606.24609375;-46.01926040649414
8.443689823150635;-38602.625;-37.00868225097656
8.443700790405273;-38616.125;-28.60880470275879
8.443711996078491;-38625.1328125;-21.10488510131836
8.44372296333313;-38606.01953125;-14.193353652954102
8.443733930587769;-38611.40625;-8.597867965698242
8.443745136260986;-38622.71875;-5.078086853027344
8.443756103515625;-38610.89453125;-2.8317949771881104
8.443767070770264;-38591.55859375;-0.34816259145736694
8.443778038024902;-38588.85546875;2.6763181686401367
8.443789005279541;-38615.36328125;5.565487384796143
8.44379997253418;-38614.55859375;8.415112495422363
8.443811178207397;-38597.28125;12.126498222351074
8.443822145462036;-38588.38671875;16.71337127685547
8.443833351135254;-38604.90234375;20.977022171020508
8.443844318389893;-38613.91015625;24.157686233520508
8.443855285644531;-38606.2890625;26.806264877319336
8.44386625289917;-38588.5859375;29.582826614379883
8.443877458572388;-38595.8046875;31.994478225708008
8.443888425827026;-38624.73046875;33.038814544677734
8.443899631500244;-38612.94921875;32.75343704223633
8.443910598754883;-38584.00390625;32.208702087402344
8.4439218044281;-38596.5;32.20306396484375
8.443933248519897;-38621.9140625;33.14347839355469
8.443944215774536;-38613.328125;35.79072952270508
8.443955183029175;-38592.54296875;40.428550720214844
8.443966388702393;-38599.26953125;45.43461227416992
8.44397783279419;-38618.26953125;48.42548751831055
8.443989038467407;-38610.625;48.97844696044922
8.444000005722046;-38590.0859375;48.8343620300293
8.444010972976685;-38580.3828125;49.44389724731445
8.444021940231323;-38600.09765625;50.91301345825195
8.44403338432312;-38621.95703125;53.45377731323242
8.444044351577759;-38599.58203125;57.67069625854492
8.444055557250977;-38597.55078125;62.64529800415039
8.444066524505615;-38615.4765625;66.00088500976562
8.444077730178833;-38614.8046875;66.81210327148438
8.44408917427063;-38592.8125;66.4404067993164
8.444100379943848;-38575.7109375;66.0242691040039
8.444111585617065;-38600.03125;65.2649154663086
8.444122314453125;-38618.89453125;64.20980072021484
8.444133520126343;-38605.171875;64.16168975830078
8.444144487380981;-38588.72265625;65.81910705566406
8.4441556930542;-38608.4140625;68.10427856445312
8.444166660308838;-38626.40625;69.86892700195312
8.444177865982056;-38607.33984375;71.3414306640625
8.444188833236694;-38590.28515625;72.94755554199219
8.444200038909912;-38595.9609375;74.16024780273438
8.444211483001709;-38616.63671875;74.4355239868164
8.444226741790771;-38612.61328125;74.08707427978516
8.444238185882568;-38592.9453125;73.47647857666016
8.444249391555786;-38592.90234375;72.3203353881836
8.444260358810425;-38610.04296875;70.68098449707031
8.444271326065063;-38604.58984375;69.95885467529297
8.444282293319702;-38583.89453125;71.53898620605469
8.444293737411499;-38587.3359375;74.35076904296875
8.444304704666138;-38610.6015625;75.41423797607422
8.444317817687988;-38620.1484375;73.44042205810547
8.444331407546997;-38597.796875;70.14849090576172
8.44434404373169;-38595.11328125;67.61357879638672
8.444358110427856;-38608.48046875;66.35860443115234
8.444370746612549;-38608.45703125;66.47988891601562
8.444383144378662;-38592.5859375;68.39945220947266
8.444395542144775;-38584.31640625;71.2373046875
8.44440770149231;-38593.59375;72.25064086914062
8.444420337677002;-38602.4453125;69.7038345336914
8.444432735443115;-38571.3984375;65.21003723144531
8.444445133209229;-38562.43359375;61.95576858520508
8.444457769393921;-38608.6796875;61.6114501953125
8.444469928741455;-38626.47265625;63.90876007080078
8.444482326507568;-38608.3671875;68.04991912841797
8.44449520111084;-38592.1640625;72.79521942138672
8.444507360458374;-38608.81640625;75.63509368896484
8.444519996643066;-38634.96484375;74.19971466064453
8.4445321559906;-38642.23046875;68.90418243408203
8.444544792175293;-38616.37109375;62.41810989379883
8.444556951522827;-38625.64453125;56.65117263793945
8.44456958770752;-38656.8046875;52.13418960571289
8.444582223892212;-38663.1953125;49.90110778808594
8.444594621658325;-38659.28515625;51.279788970947266
8.959518432617188;-38679.15625;55.2345085144043
8.959549188613892;-38705.44140625;58.4127082824707
8.959564685821533;-38694.9140625;58.78569030761719
8.959580421447754;-38694.9375;57.390602111816406
8.959593057632446;-38723.8359375;56.003116607666016
8.959607124328613;-38752.046875;54.8057746887207
8.959620237350464;-38731.03515625;53.176395416259766
8.959630250930786;-38725.9140625;51.448829650878906
8.95964002609253;-38745.40625;50.377262115478516
8.959649801254272;-38768.4296875;49.650882720947266
8.959659576416016;-38764.62890625;48.62623596191406
8.95966911315918;-38758.7265625;47.779991149902344
8.959678649902344;-38784.12109375;47.786861419677734
8.959688425064087;-38802.62890625;48.11368942260742
8.959697961807251;-38782.82421875;48.116661071777344
8.959707736968994;-38786.48828125;48.43621826171875
8.959717273712158;-38796.79296875;49.73276138305664
8.959727048873901;-38815.5703125;51.080299377441406
8.959736824035645;-38812.171875;51.19935989379883
8.959746360778809;-38794.40234375;50.56257629394531
8.959756135940552;-38797.44140625;50.55845260620117
8.959765672683716;-38826.20703125;50.856685638427734
8.959775447845459;-38828.109375;49.74604797363281
8.959784984588623;-38807.54296875;47.1671028137207
8.959794759750366;-38800.81640625;45.0859375
8.959806680679321;-38810.828125;44.66561508178711
8.959819555282593;-38803.9921875;45.080413818359375
8.959831714630127;-38795.47265625;45.271507263183594
8.959844589233398;-38792.63671875;45.1295280456543
8.95985722541809;-38808.4609375;44.560420989990234
8.959869623184204;-38807.2109375;42.97246170043945
8.959882259368896;-38778.64453125;40.50288391113281
8.959894895553589;-38768.94140625;38.44044876098633
8.959907293319702;-38785.015625;37.70634460449219
8.959919929504395;-38791.5390625;38.08051300048828
8.959932327270508;-38764.2265625;39.214778900146484
8.9599449634552;-38758.52734375;41.095977783203125
8.959957599639893;-38773.59375;42.909149169921875
8.959969997406006;-38782.421875;42.61096954345703
8.959982633590698;-38767.578125;39.108943939208984
8.959995031356812;-38758.68359375;34.22489929199219
8.960007667541504;-38764.6953125;30.801603317260742
8.960020303726196;-38779.984375;29.55274200439453
8.96003270149231;-38766.88671875;29.44448471069336
8.960045337677002;-38753.02734375;30.241497039794922
8.960057497024536;-38754.66015625;32.5816650390625
8.960070133209229;-38767.40234375;35.941184997558594
8.960082769393921;-38765.79296875;38.51793670654297
8.960095167160034;-38751.3515625;38.93434143066406
8.96010708808899;-38751.0390625;36.593814849853516
8.960118055343628;-38755.5546875;31.064905166625977
8.960129022598267;-38769.79296875;22.91736602783203
8.960139989852905;-38765.546875;15.072071075439453
8.960150957107544;-38754.2578125;11.528985977172852
8.960162162780762;-38763.6015625;14.02188777923584
8.9601731300354;-38768.98828125;20.88030242919922
8.960184097290039;-38756.06640625;29.01345443725586
8.960195064544678;-38737.11328125;35.51285934448242
8.960206031799316;-38752.87109375;37.89177322387695
8.960216999053955;-38768.13671875;35.05446243286133
8.960228204727173;-38762.70703125;28.649099349975586
8.96023941040039;-38743.328125;22.276838302612305
8.96025037765503;-38747.375;18.48626708984375
8.960261344909668;-38760.44921875;16.99739646911621
8.960272312164307;-38755.21875;16.284460067749023
8.960283756256104;-38725.8046875;15.899056434631348
8.960294723510742;-38731.79296875;16.305627822875977
8.96030569076538;-38759.30859375;17.089845657348633
8.96031665802002;-38752.3125;16.87982940673828
8.960327625274658;-38728.2421875;15.28006362915039
8.960338592529297;-38737.4921875;13.28818416595459
8.960349798202515;-38754.1015625;11.605328559875488
8.960360765457153;-38757.0078125;10.41701889038086
8.960371732711792;-38730.18359375;10.524103164672852
8.96038269996643;-38732.0390625;12.308215141296387
8.96039366722107;-38744.46875;13.964122772216797
8.960404634475708;-38751.53125;13.072936058044434
8.960416078567505;-38726.83203125;9.92379093170166
8.960427045822144;-38727.32421875;7.581821918487549
8.960438013076782;-38741.8984375;8.232315063476562
8.96044921875;-38740.109375;10.723684310913086
8.960460186004639;-38733.24609375;12.493183135986328
8.960471391677856;-38728.77734375;12.476507186889648
8.960482358932495;-38745.765625;10.942363739013672
8.960493326187134;-38745.5859375;8.201802253723145
8.960504293441772;-38736.734375;5.20014762878418
8.960515260696411;-38715.7890625;3.8813931941986084
8.96052598953247;-38722.05078125;4.932135581970215
8.960537195205688;-38753.56640625;6.190557479858398
8.960548162460327;-38752.15625;5.1314191818237305
8.960559129714966;-38726.31640625;1.929071307182312
8.960570096969604;-38732.2421875;-1.4777040481567383
8.960581064224243;-38746.43359375;-4.181947708129883
8.960592031478882;-38742.76953125;-6.489609718322754
8.96060299873352;-38723.14453125;-8.10045337677002
8.960614204406738;-38715.58984375;-8.283032417297363
8.960626125335693;-38750.8828125;-7.923655033111572
8.96063780784607;-38757.3203125;-8.879849433898926
8.960649013519287;-38740.84765625;-10.901413917541504
8.960659980773926;-38727.81640625;-11.788990020751953
8.960670948028564;-38736.04296875;-10.617895126342773
8.960681915283203;-38737.65234375;-8.210665702819824
8.960692882537842;-38727.32421875;-4.923364162445068
8.96070408821106;-38710.875;-0.7456387281417847
8.960715055465698;-38725.8046875;2.6935207843780518
8.960726022720337;-38754.125;2.705512523651123
8.960736751556396;-38743.6640625;-1.5047935247421265
8.960747957229614;-38727.99609375;-7.987972736358643
8.960758686065674;-38745.16015625;-14.488911628723145
8.96077275276184;-38760.13671875;-20.439319610595703
8.960788249969482;-38751.64453125;-25.667158126831055
8.9607994556427;-38719.58984375;-28.23025131225586
8.960810422897339;-38725.04296875;-25.86833381652832
8.960821390151978;-38758.52734375;-19.580856323242188
8.960832834243774;-38748.9140625;-13.106801986694336
8.960843801498413;-38733.46875;-9.005309104919434
8.960854768753052;-38728.5078125;-8.366628646850586
8.96086573600769;-38743.70703125;-13.943717002868652
8.960876703262329;-38754.32421875;-28.318986892700195
8.960887908935547;-38742.65625;-46.76877212524414
8.960898876190186;-38730.2734375;-57.4721794128418
8.960909843444824;-38746.76953125;-52.59233856201172
8.960920810699463;-38757.87890625;-35.204429626464844
8.960931777954102;-38739.171875;-14.337228775024414
8.96094274520874;-38729.58203125;2.035498857498169
8.960953950881958;-38748.984375;9.278496742248535
8.960964918136597;-38752.73828125;6.557618141174316
8.960975885391235;-38734.8125;-2.9758315086364746
9.467043161392212;-38743.70703125;-14.148326873779297
9.467088222503662;-38747.39453125;-23.4677791595459
9.467110395431519;-38740.84765625;-30.962238311767578
9.467125177383423;-38716.28125;-37.6589241027832
9.46713924407959;-38729.55859375;-41.96437072753906
9.467154026031494;-38759.84765625;-40.76515579223633
9.467180967330933;-38744.78125;-33.7222900390625
9.467195510864258;-38724.375;-24.081626892089844
9.467209815979004;-38727.94921875;-15.871623992919922
9.467223644256592;-38745.609375;-12.20970630645752
9.46723747253418;-38740.46484375;-14.963953018188477
9.467251062393188;-38730.5859375;-23.30792808532715
9.467264652252197;-38729.828125;-32.70550537109375
9.467278003692627;-38747.6875;-37.57356643676758
9.467291593551636;-38748.984375;-35.96377182006836
9.467305421829224;-38728.5078125;-30.752553939819336
9.467319250106812;-38733.89453125;-26.05826187133789
9.46733283996582;-38741.671875;-24.049842834472656
9.467346429824829;-38735.68359375;-25.113555908203125
9.467360019683838;-38723.9921875;-28.542245864868164
9.467373609542847;-38721.22265625;-32.400726318359375
9.467387437820435;-38740.01953125;-34.43925476074219
9.467401027679443;-38760.11328125;-34.007728576660156
9.467414617538452;-38737.3359375;-32.57926940917969
9.467428207397461;-38721.7578125;-31.819717407226562
9.467441320419312;-38739.9765625;-31.75961685180664
9.46745491027832;-38750.34765625;-31.761499404907227
9.467468738555908;-38738.38671875;-32.14905548095703
9.467482328414917;-38713.64453125;-33.34445571899414
9.467495679855347;-38722.7421875;-34.36147689819336
9.467509508132935;-38737.96484375;-33.90031051635742
9.467523336410522;-38725.828125;-32.249107360839844
9.467536926269531;-38729.55859375;-30.451547622680664
9.46755051612854;-38745.921875;-28.492591857910156
9.467564105987549;-38764.2265625;-25.95606231689453
9.467577695846558;-38756.1796875;-23.560062408447266
9.467591524124146;-38727.99609375;-22.509248733520508
9.467604875564575;-38725.40234375;-22.8115234375
9.467618703842163;-38732.375;-23.614471435546875
9.467632293701172;-38725.19921875;-24.840896606445312
9.46764588356018;-38707.87890625;-26.780807495117188
9.46765947341919;-38731.48046875;-28.562917709350586
9.46767282485962;-38738.12109375;-29.059551239013672
9.467686653137207;-38743.44140625;-28.893709182739258
9.467700242996216;-38725.9375;-29.7149600982666
9.467713832855225;-38721.6484375;-31.541919708251953
9.467727422714233;-38740.3984375;-32.36933517456055
9.467741012573242;-38744.890625;-30.96773910522461
9.467754602432251;-38734.69921875;-28.630220413208008
9.467768430709839;-38723.703125;-26.906007766723633
9.467781782150269;-38724.53125;-25.284208297729492
9.467795610427856;-38746.94921875;-23.12459945678711
9.467809200286865;-38741.7421875;-22.011720657348633
9.467823028564453;-38723.8828125;-23.849620819091797
9.467836618423462;-38732.93359375;-27.996370315551758
9.46785020828247;-38750.03515625;-31.983078002929688
9.467864036560059;-38726.69921875;-34.21284103393555
9.467877626419067;-38709.91015625;-34.62135314941406
9.467891216278076;-38734.72265625;-33.51700973510742
9.467905044555664;-38750.50390625;-31.699996948242188
9.467918634414673;-38745.67578125;-31.214900970458984
9.46793246269226;-38718.78515625;-34.037452697753906
9.46794605255127;-38711.921875;-39.8145866394043
9.467960119247437;-38727.2109375;-45.750099182128906
9.467973947525024;-38744.37890625;-48.989742279052734
9.467987298965454;-38722.25;-48.79804229736328
9.468001127243042;-38722.4296875;-46.299774169921875
9.468014478683472;-38738.5;-43.11562728881836
9.46802830696106;-38742.43359375;-40.96348190307617
9.46804666519165;-38719.5234375;-41.034339904785156
9.46806025505066;-38706.3125;-42.363739013671875
9.468074083328247;-38737.42578125;-42.05746078491211
9.468087673187256;-38749.921875;-38.21484375
9.468101024627686;-38734.25390625;-31.651262283325195
9.468114614486694;-38721.19921875;-24.62799835205078
9.468128442764282;-38738.1640625;-19.441946029663086
9.468142032623291;-38747.10546875;-18.05290412902832
9.4681556224823;-38744.22265625;-21.013343811035156
9.468169212341309;-38718.8515625;-25.900447845458984
9.468183040618896;-38731.68359375;-27.91986846923828
9.468196868896484;-38765.5;-23.808530807495117
9.468210458755493;-38744.15625;-15.30105209350586
9.468224287033081;-38719.34375;-7.516623497009277
9.468238115310669;-38727.83984375;-4.177678108215332
9.468251705169678;-38749.140625;-5.3938188552856445
9.468265295028687;-38722.65234375;-9.21455192565918
9.468279123306274;-38704.92578125;-13.526230812072754
9.468292713165283;-38720.0390625;-16.459903717041016
9.468306541442871;-38740.53515625;-17.004276275634766
9.4683198928833;-38747.0390625;-16.058107376098633
9.46833348274231;-38728.375;-15.501338958740234
9.468347072601318;-38738.5;-15.900081634521484
9.468360900878906;-38749.83203125;-16.284137725830078
9.468374729156494;-38768.8515625;-16.046701431274414
9.468388319015503;-38750.4140625;-15.565682411193848
9.468406438827515;-38710.29296875;-14.729720115661621
9.468420028686523;-38726.05078125;-12.576897621154785
9.468440294265747;-38750.234375;-9.156543731689453
9.468454360961914;-38734.43359375;-6.344942092895508
9.468468189239502;-38711.07421875;-6.00921630859375
9.46848177909851;-38748.89453125;-8.212629318237305
9.468495607376099;-38820.53125;-11.658026695251465
9.468509435653687;-38830.9453125;-15.090432167053223
9.468523025512695;-38714.1796875;-17.598711013793945
9.468536853790283;-38705.88671875;-18.247196197509766
9.468550443649292;-38744.98046875;-16.849720001220703
9.4685640335083;-38724.953125;-14.932661056518555
9.46857762336731;-38707.96875;-14.330010414123535
9.468591213226318;-38722.20703125;-14.953471183776855
9.468605041503906;-38743.4609375;-15.260627746582031
9.468618392944336;-38740.98046875;-14.500654220581055
9.46865177154541;-38735.90625;-13.188254356384277
9.468677282333374;-38738.1640625;-11.644765853881836
9.468691110610962;-38760.0703125;-9.67232894897461
9.46870470046997;-38786.82421875;-7.995959758758545
9.46871829032898;-38766.59765625;-8.452046394348145
9.468741655349731;-38719.14453125;-11.753631591796875
9.46875524520874;-38737.31640625;-16.032878875732422
9.46876859664917;-38738.8125;-18.51840591430664
9.468782186508179;-38735.39453125;-17.946617126464844
9.468795537948608;-38727.390625;-14.740270614624023
9.468808889389038;-38759.21875;-9.974989891052246
9.468822240829468;-38773.59375;-5.416705131530762
9.468835592269897;-38760.31640625;-3.4697318077087402
9.468849182128906;-38734.65625;-5.190617084503174
9.468862771987915;-38729.8046875;-8.799038887023926
9.468876123428345;-38754.2578125;-11.512290954589844
